# time[s], AoA[rad], cl[-], cd[-], cm[-]
0.000000 0.322877 0.744975 0.225082 -0.093593
0.010000 0.317692 0.730120 0.214327 -0.089136
0.020000 0.312510 0.720000 0.203861 -0.085176
0.030000 0.307338 0.720000 0.194015 -0.082278
0.040000 0.302178 0.720000 0.184193 -0.079388
0.050000 0.297034 0.718376 0.174486 -0.076342
0.060000 0.291912 0.712507 0.165036 -0.072879
0.070000 0.286816 0.706666 0.155633 -0.069433
0.080000 0.281748 0.700859 0.146284 -0.066007
0.090000 0.276714 0.712273 0.134370 -0.060886
0.100000 0.271718 0.726586 0.122089 -0.055504
0.110000 0.266763 0.740781 0.109910 -0.050166
0.120000 0.261854 0.758612 0.098383 -0.044687
0.130000 0.256994 0.783361 0.087988 -0.038902
0.140000 0.252188 0.807837 0.077708 -0.033180
0.150000 0.247440 0.830827 0.068212 -0.028031
0.160000 0.242753 0.840592 0.065990 -0.028397
0.170000 0.238131 0.850222 0.063799 -0.028758
0.180000 0.233578 0.859708 0.061641 -0.029114
0.190000 0.229097 0.869043 0.059518 -0.029464
0.200000 0.224693 0.864977 0.056889 -0.029023
0.210000 0.220369 0.859471 0.054246 -0.028500
0.220000 0.216127 0.854071 0.051654 -0.027987
0.230000 0.211973 0.848504 0.049261 -0.027595
0.240000 0.207909 0.842153 0.047398 -0.027574
0.250000 0.203938 0.835948 0.045578 -0.027553
0.260000 0.200063 0.829894 0.043802 -0.027533
0.270000 0.196289 0.823996 0.042072 -0.027513
0.280000 0.192617 0.816808 0.040044 -0.027289
0.290000 0.189051 0.806592 0.037307 -0.026615
0.300000 0.185594 0.796688 0.034653 -0.025961
0.310000 0.182249 0.787104 0.032084 -0.025329
0.320000 0.179017 0.777847 0.029603 -0.024718
0.330000 0.175903 0.769570 0.027425 -0.024273
0.340000 0.172908 0.766138 0.026824 -0.024857
0.350000 0.170034 0.762845 0.026248 -0.025416
0.360000 0.167285 0.759695 0.025697 -0.025952
0.370000 0.164663 0.756689 0.025171 -0.026463
0.380000 0.162168 0.753831 0.024670 -0.026949
0.390000 0.159805 0.751123 0.024196 -0.027409
0.400000 0.157573 0.748566 0.023749 -0.027844
0.410000 0.155476 0.746163 0.023328 -0.028252
0.420000 0.153515 0.743915 0.022935 -0.028634
0.430000 0.151692 0.741826 0.022570 -0.028990
0.440000 0.150007 0.739896 0.022232 -0.029318
0.450000 0.148463 0.738126 0.021922 -0.029619
0.460000 0.147061 0.736519 0.021641 -0.029892
0.470000 0.145801 0.735076 0.021388 -0.030137
0.480000 0.144685 0.733797 0.021165 -0.030354
0.490000 0.143714 0.732684 0.020970 -0.030544
0.500000 0.142889 0.731738 0.020804 -0.030704
0.510000 0.142209 0.730960 0.020668 -0.030837
0.520000 0.141677 0.730350 0.020561 -0.030941
0.530000 0.141291 0.729793 0.020476 -0.030997
0.540000 0.141053 0.729179 0.020405 -0.030988
0.550000 0.140963 0.728946 0.020378 -0.030985
0.560000 0.141020 0.729094 0.020395 -0.030987
0.570000 0.141225 0.729623 0.020456 -0.030995
0.580000 0.141578 0.730236 0.020541 -0.030960
0.590000 0.142078 0.730809 0.020642 -0.030862
0.600000 0.142724 0.731550 0.020771 -0.030736
0.610000 0.143517 0.732459 0.020930 -0.030582
0.620000 0.144456 0.733535 0.021119 -0.030399
0.630000 0.145540 0.734776 0.021336 -0.030188
0.640000 0.146767 0.736183 0.021582 -0.029949
0.650000 0.148138 0.737754 0.021857 -0.029682
0.660000 0.149651 0.739487 0.022160 -0.029387
0.670000 0.151304 0.741381 0.022492 -0.029065
0.680000 0.153096 0.743436 0.022851 -0.028716
0.690000 0.155027 0.745648 0.023238 -0.028340
0.700000 0.157094 0.748016 0.023653 -0.027937
0.710000 0.159295 0.750539 0.024094 -0.027508
0.720000 0.161630 0.753214 0.024562 -0.027054
0.730000 0.164095 0.756039 0.025057 -0.026573
0.740000 0.166689 0.759012 0.025577 -0.026068
0.750000 0.169410 0.762130 0.026123 -0.025538
0.760000 0.172256 0.765391 0.026693 -0.024984
0.770000 0.175224 0.768792 0.027289 -0.024405
0.780000 0.178312 0.775827 0.029062 -0.024585
0.790000 0.181518 0.785010 0.031523 -0.025191
0.800000 0.184838 0.794522 0.034072 -0.025818
0.810000 0.188271 0.804355 0.036707 -0.026467
0.820000 0.191812 0.814502 0.039427 -0.027137
0.830000 0.195461 0.822702 0.041693 -0.027509
0.840000 0.199212 0.828565 0.043412 -0.027529
0.850000 0.203065 0.834584 0.045178 -0.027549
0.860000 0.207014 0.840756 0.046988 -0.027569
0.870000 0.211058 0.847075 0.048842 -0.027590
0.880000 0.215193 0.852881 0.051083 -0.027874
0.890000 0.219415 0.858257 0.053663 -0.028384
0.900000 0.223721 0.863739 0.056295 -0.028905
0.910000 0.228108 0.869325 0.058976 -0.029436
0.920000 0.232572 0.861804 0.061164 -0.029193
0.930000 0.237109 0.852351 0.063315 -0.028838
0.940000 0.241716 0.842753 0.065499 -0.028478
0.950000 0.246389 0.833017 0.067714 -0.028113
0.960000 0.251124 0.813259 0.075431 -0.031913
0.970000 0.255917 0.788846 0.085685 -0.037620
0.980000 0.260765 0.764156 0.096054 -0.043391
0.990000 0.265664 0.743930 0.107208 -0.048982
1.000000 0.270609 0.729764 0.119363 -0.054309
1.010000 0.275596 0.715476 0.131622 -0.059681
1.020000 0.280622 0.701077 0.143976 -0.065095
1.030000 0.285682 0.705368 0.153542 -0.068667
1.040000 0.290773 0.711201 0.162934 -0.072109
1.050000 0.295890 0.717065 0.172374 -0.075568
1.060000 0.301029 0.720000 0.182006 -0.078744
1.070000 0.306185 0.720000 0.191821 -0.081633
1.080000 0.311356 0.720000 0.201663 -0.084529
1.090000 0.316535 0.726807 0.211928 -0.088142
1.100000 0.321720 0.741661 0.222682 -0.092598
1.110000 0.326906 0.756517 0.233439 -0.097055
1.120000 0.332089 0.770546 0.244139 -0.101351
1.130000 0.337265 0.776477 0.254340 -0.104079
1.140000 0.342428 0.782394 0.264518 -0.106801
1.150000 0.347576 0.788293 0.274664 -0.109515
1.160000 0.352705 0.794964 0.285761 -0.112236
1.170000 0.357809 0.801927 0.297207 -0.114951
1.180000 0.362884 0.808851 0.308591 -0.117652
1.190000 0.367928 0.815731 0.319902 -0.120335
1.200000 0.372934 0.822561 0.331130 -0.122999
1.210000 0.377901 0.829336 0.342268 -0.125641
1.220000 0.382822 0.836050 0.353306 -0.128259
1.230000 0.387695 0.839433 0.363018 -0.130265
1.240000 0.392516 0.838053 0.370862 -0.131397
1.250000 0.397280 0.836688 0.378614 -0.132516
1.260000 0.401983 0.835340 0.386267 -0.133621
1.270000 0.406623 0.834011 0.393817 -0.134711
1.280000 0.411194 0.832702 0.401255 -0.135785
1.290000 0.415694 0.831412 0.408577 -0.136842
1.300000 0.420119 0.830145 0.415777 -0.137881
1.310000 0.424464 0.827800 0.422529 -0.139001
1.320000 0.428727 0.825357 0.429112 -0.140112
1.330000 0.432904 0.822964 0.435562 -0.141201
1.340000 0.436992 0.820622 0.441874 -0.142267
1.350000 0.440988 0.818333 0.448043 -0.143309
1.360000 0.444887 0.816099 0.454064 -0.144325
1.370000 0.448687 0.813921 0.459932 -0.145316
1.380000 0.452385 0.811802 0.465643 -0.146280
1.390000 0.455978 0.811753 0.472037 -0.147641
1.400000 0.459463 0.825415 0.484017 -0.151855
1.410000 0.462837 0.838641 0.495616 -0.155935
1.420000 0.466097 0.851422 0.506824 -0.159877
1.430000 0.469241 0.863747 0.517632 -0.163679
1.440000 0.472266 0.875606 0.528031 -0.167337
1.450000 0.475170 0.886989 0.538013 -0.170848
1.460000 0.477950 0.897887 0.547570 -0.174210
1.470000 0.480604 0.908291 0.556694 -0.177419
1.480000 0.483130 0.918193 0.565377 -0.180473
1.490000 0.485525 0.927584 0.573613 -0.183370
1.500000 0.487789 0.936458 0.581394 -0.186107
1.510000 0.489918 0.943863 0.588395 -0.188405
1.520000 0.491912 0.950146 0.594730 -0.190364
1.530000 0.493769 0.955997 0.600628 -0.192188
1.540000 0.495486 0.961409 0.606085 -0.193876
1.550000 0.497063 0.966380 0.611096 -0.195426
1.560000 0.498499 0.970905 0.615658 -0.196837
1.570000 0.499792 0.974980 0.619766 -0.198107
1.580000 0.500942 0.978602 0.623417 -0.199237
1.590000 0.501946 0.981767 0.626609 -0.200224
1.600000 0.502806 0.984475 0.629339 -0.201068
1.610000 0.503518 0.986721 0.631604 -0.201769
1.620000 0.504085 0.988505 0.633402 -0.202325
1.630000 0.504503 0.989825 0.634733 -0.202736
1.640000 0.504775 0.990680 0.635595 -0.203003
1.650000 0.504898 0.991069 0.635987 -0.203124
1.660000 0.504874 0.990992 0.635910 -0.203100
1.670000 0.504701 0.990449 0.635362 -0.202931
1.680000 0.504381 0.989440 0.634345 -0.202616
1.690000 0.503914 0.987967 0.632859 -0.202157
1.700000 0.503299 0.986030 0.630906 -0.201553
1.710000 0.502538 0.983630 0.628487 -0.200805
1.720000 0.501630 0.980771 0.625605 -0.199913
1.730000 0.500578 0.977454 0.622261 -0.198879
1.740000 0.499381 0.973682 0.618458 -0.197703
1.750000 0.498040 0.969458 0.614199 -0.196386
1.760000 0.496557 0.964785 0.609488 -0.194929
1.770000 0.494934 0.959668 0.604329 -0.193333
1.780000 0.493170 0.954110 0.598726 -0.191600
1.790000 0.491268 0.948116 0.592683 -0.189731
1.800000 0.489229 0.941691 0.586205 -0.187727
1.810000 0.487055 0.933581 0.578871 -0.185220
1.820000 0.484747 0.924536 0.570939 -0.182430
1.830000 0.482309 0.914974 0.562555 -0.179481
1.840000 0.479740 0.904906 0.553725 -0.176375
1.850000 0.477044 0.894337 0.544457 -0.173115
1.860000 0.474223 0.883278 0.534759 -0.169703
1.870000 0.471279 0.871736 0.524638 -0.166143
1.880000 0.468214 0.859722 0.514102 -0.162437
1.890000 0.465032 0.847245 0.503161 -0.158589
1.900000 0.461734 0.834316 0.491823 -0.154601
1.910000 0.458323 0.820944 0.480097 -0.150476
1.920000 0.454802 0.810418 0.469374 -0.146910
1.930000 0.451174 0.812496 0.463772 -0.145964
1.940000 0.447442 0.814635 0.458009 -0.144991
1.950000 0.443608 0.816831 0.452090 -0.143992
1.960000 0.439677 0.819084 0.446019 -0.142967
1.970000 0.435651 0.821391 0.439802 -0.141917
1.980000 0.431533 0.823750 0.433444 -0.140844
1.990000 0.427327 0.826160 0.426949 -0.139747
2.000000 0.423036 0.828618 0.420324 -0.138629
2.010000 0.418664 0.830562 0.413410 -0.137539
2.020000 0.414214 0.831836 0.406169 -0.136494
2.030000 0.409690 0.833132 0.398808 -0.135431
2.040000 0.405096 0.834449 0.391332 -0.134352
2.050000 0.400435 0.835784 0.383747 -0.133257
2.060000 0.395711 0.837137 0.376061 -0.132147
2.070000 0.390928 0.838507 0.368278 -0.131024
2.080000 0.386089 0.839894 0.360405 -0.129887
2.090000 0.381200 0.833837 0.349668 -0.127396
2.100000 0.376263 0.827102 0.338596 -0.124770
2.110000 0.371283 0.820308 0.327427 -0.122120
2.120000 0.366264 0.813461 0.316170 -0.119450
2.130000 0.361209 0.806566 0.304834 -0.116761
2.140000 0.356124 0.799628 0.293428 -0.114055
2.150000 0.351011 0.792654 0.281963 -0.111335
2.160000 0.345876 0.786345 0.271313 -0.108619
2.170000 0.340722 0.780439 0.261155 -0.105902
2.180000 0.335554 0.774517 0.250969 -0.103178
2.190000 0.330376 0.766457 0.240635 -0.100037
2.200000 0.325191 0.751604 0.229882 -0.095581
2.210000 0.320005 0.736747 0.219125 -0.091124
2.220000 0.314821 0.721897 0.208373 -0.086669
2.230000 0.309644 0.720000 0.198406 -0.083571
2.240000 0.304478 0.720000 0.188572 -0.080676
2.250000 0.299327 0.720000 0.178767 -0.077791
2.260000 0.294195 0.715123 0.169247 -0.074422
2.270000 0.289086 0.709269 0.159822 -0.070968
2.280000 0.284005 0.703446 0.150448 -0.067533
2.290000 0.278956 0.705851 0.139880 -0.063300
2.300000 0.273942 0.720214 0.127557 -0.057900
2.310000 0.268968 0.734463 0.115331 -0.052542
2.320000 0.264038 0.748586 0.103213 -0.047232
2.330000 0.259156 0.772351 0.092613 -0.041475
2.340000 0.254326 0.796952 0.082280 -0.035725
2.350000 0.249551 0.821268 0.072067 -0.030041
2.360000 0.244836 0.836251 0.066978 -0.028234
2.370000 0.240185 0.845943 0.064773 -0.028598
2.380000 0.235600 0.855494 0.062600 -0.028956
2.390000 0.231087 0.864898 0.060461 -0.029309
2.400000 0.226648 0.867466 0.058084 -0.029259
2.410000 0.222288 0.861914 0.055419 -0.028732
2.420000 0.218009 0.856467 0.052804 -0.028214
2.430000 0.213815 0.851127 0.050241 -0.027707
2.440000 0.209710 0.844969 0.048224 -0.027583
2.450000 0.205697 0.838698 0.046385 -0.027562
2.460000 0.201780 0.832576 0.044589 -0.027542
2.470000 0.197960 0.826608 0.042838 -0.027522
2.480000 0.194242 0.820798 0.041134 -0.027503
2.490000 0.190629 0.811112 0.038518 -0.026913
2.500000 0.187123 0.801068 0.035826 -0.026250
2.510000 0.183727 0.791340 0.033219 -0.025608
2.520000 0.180445 0.781936 0.030699 -0.024988
2.530000 0.177278 0.772863 0.028267 -0.024389
2.540000 0.174229 0.767652 0.027089 -0.024599
2.550000 0.171301 0.764296 0.026502 -0.025170
2.560000 0.168496 0.761082 0.025939 -0.025716
2.570000 0.165817 0.758012 0.025402 -0.026238
2.580000 0.163265 0.755088 0.024890 -0.026735
2.590000 0.160843 0.752312 0.024405 -0.027207
2.600000 0.158552 0.749687 0.023945 -0.027653
2.610000 0.156395 0.747215 0.023513 -0.028073
2.620000 0.154373 0.744898 0.023107 -0.028467
2.630000 0.152488 0.742738 0.022729 -0.028834
2.640000 0.150741 0.740737 0.022379 -0.029175
2.650000 0.149134 0.738895 0.022057 -0.029488
2.660000 0.147669 0.737216 0.021763 -0.029773
2.670000 0.146345 0.735699 0.021497 -0.030031
2.680000 0.145165 0.734347 0.021261 -0.030261
2.690000 0.144129 0.733160 0.021053 -0.030463
2.700000 0.143239 0.732140 0.020874 -0.030636
2.710000 0.142494 0.731286 0.020725 -0.030781
2.720000 0.141896 0.730601 0.020605 -0.030898
2.730000 0.141445 0.730084 0.020515 -0.030986
2.740000 0.141141 0.729405 0.020431 -0.030991
2.750000 0.140985 0.729002 0.020385 -0.030986
2.760000 0.140976 0.728980 0.020382 -0.030985
2.770000 0.141115 0.729339 0.020424 -0.030990
2.780000 0.141402 0.730035 0.020506 -0.030994
2.790000 0.141836 0.730532 0.020593 -0.030909
2.800000 0.142417 0.731198 0.020710 -0.030796
2.810000 0.143145 0.732032 0.020856 -0.030654
2.820000 0.144019 0.733034 0.021031 -0.030484
2.830000 0.145038 0.734201 0.021235 -0.030286
2.840000 0.146202 0.735535 0.021469 -0.030059
2.850000 0.147509 0.737032 0.021731 -0.029805
2.860000 0.148958 0.738693 0.022021 -0.029522
2.870000 0.150549 0.740516 0.022340 -0.029212
2.880000 0.152279 0.742499 0.022687 -0.028875
2.890000 0.154148 0.744641 0.023062 -0.028511
2.900000 0.156155 0.746940 0.023464 -0.028120
2.910000 0.158296 0.749394 0.023894 -0.027703
2.920000 0.160571 0.752001 0.024350 -0.027260
2.930000 0.162979 0.754760 0.024833 -0.026791
2.940000 0.165515 0.757667 0.025342 -0.026297
2.950000 0.168180 0.760720 0.025876 -0.025778
2.960000 0.170971 0.763918 0.026436 -0.025234
2.970000 0.173885 0.767257 0.027020 -0.024666
2.980000 0.176919 0.771837 0.027992 -0.024321
2.990000 0.180073 0.780871 0.030413 -0.024917
3.000000 0.183342 0.790237 0.032924 -0.025536
3.010000 0.186725 0.799928 0.035521 -0.026175
3.020000 0.190218 0.809936 0.038203 -0.026836
3.030000 0.193820 0.820138 0.040940 -0.027500
3.040000 0.197526 0.825929 0.042639 -0.027520
3.050000 0.201333 0.831879 0.044384 -0.027540
3.060000 0.205240 0.837983 0.046175 -0.027560
3.070000 0.209242 0.844237 0.048010 -0.027581
3.080000 0.213337 0.850518 0.049948 -0.027649
3.090000 0.217520 0.855844 0.052505 -0.028155
3.100000 0.221789 0.861280 0.055114 -0.028672
3.110000 0.226141 0.866820 0.057774 -0.029198
3.120000 0.230571 0.865974 0.060216 -0.029349
3.130000 0.235076 0.856588 0.062351 -0.028997
3.140000 0.239652 0.847053 0.064520 -0.028639
3.150000 0.244296 0.837378 0.066722 -0.028277
3.160000 0.249004 0.824058 0.070896 -0.029389
3.170000 0.253771 0.799775 0.081095 -0.035065
3.180000 0.258596 0.775206 0.091413 -0.040808
3.190000 0.263472 0.750371 0.101844 -0.046613
3.200000 0.268397 0.736101 0.113926 -0.051926
3.210000 0.273366 0.721865 0.126139 -0.057279
3.220000 0.278375 0.707515 0.138452 -0.062674
3.230000 0.283420 0.702776 0.149369 -0.067138
3.240000 0.288498 0.708594 0.158737 -0.070571
3.250000 0.293604 0.714445 0.168156 -0.074023
3.260000 0.298733 0.720000 0.177637 -0.077458
3.270000 0.303882 0.720000 0.187438 -0.080343
3.280000 0.309047 0.720000 0.197269 -0.083236
3.290000 0.314223 0.720183 0.207133 -0.086155
3.300000 0.319406 0.735032 0.217883 -0.090610
3.310000 0.324592 0.749889 0.228639 -0.095067
3.320000 0.329777 0.764742 0.239393 -0.099523
3.330000 0.334956 0.773832 0.249791 -0.102863
3.340000 0.340126 0.779756 0.259980 -0.105588
3.350000 0.345282 0.785664 0.270141 -0.108305
3.360000 0.350419 0.791846 0.280635 -0.111020
3.370000 0.355534 0.798824 0.292107 -0.113742
3.380000 0.360623 0.805767 0.303520 -0.116449
3.390000 0.365682 0.812667 0.314865 -0.119140
3.400000 0.370705 0.819520 0.326131 -0.121813
3.410000 0.375690 0.826320 0.337311 -0.124465
3.420000 0.380632 0.833062 0.348394 -0.127094
3.430000 0.385527 0.839740 0.359373 -0.129699
3.440000 0.390372 0.838667 0.367373 -0.130893
3.450000 0.395161 0.837295 0.375167 -0.132018
3.460000 0.399892 0.835939 0.382865 -0.133130
3.470000 0.404561 0.834602 0.390462 -0.134227
3.480000 0.409163 0.833283 0.397950 -0.135308
3.490000 0.413696 0.831985 0.405325 -0.136372
3.500000 0.418154 0.830708 0.412580 -0.137420
3.510000 0.422535 0.828905 0.419551 -0.138498
3.520000 0.426836 0.826441 0.426191 -0.139619
3.530000 0.431052 0.824026 0.432701 -0.140718
3.540000 0.435180 0.821660 0.439075 -0.141795
3.550000 0.439217 0.819347 0.445309 -0.142847
3.560000 0.443159 0.817088 0.451397 -0.143875
3.570000 0.447004 0.814886 0.457333 -0.144877
3.580000 0.450748 0.812740 0.463115 -0.145853
3.590000 0.454388 0.810655 0.468736 -0.146802
3.600000 0.457922 0.819373 0.478719 -0.149991
3.610000 0.461346 0.832795 0.490489 -0.154131
3.620000 0.464657 0.845776 0.501872 -0.158135
3.630000 0.467853 0.858306 0.512860 -0.162000
3.640000 0.470931 0.870374 0.523443 -0.165723
3.650000 0.473890 0.881970 0.533612 -0.169300
3.660000 0.476725 0.893086 0.543360 -0.172729
3.670000 0.479435 0.903711 0.552678 -0.176006
3.680000 0.482019 0.913838 0.561558 -0.179130
3.690000 0.484473 0.923459 0.569994 -0.182098
3.700000 0.486795 0.932564 0.577979 -0.184906
3.710000 0.488985 0.940922 0.585430 -0.187488
3.720000 0.491040 0.947397 0.591958 -0.189507
3.730000 0.492957 0.953441 0.598051 -0.191391
3.740000 0.494737 0.959049 0.603705 -0.193140
3.750000 0.496377 0.964218 0.608916 -0.194752
3.760000 0.497876 0.968942 0.613679 -0.196225
3.770000 0.499233 0.973218 0.617990 -0.197558
3.780000 0.500447 0.977042 0.621846 -0.198751
3.790000 0.501516 0.980412 0.625243 -0.199801
3.800000 0.502441 0.983325 0.628179 -0.200709
3.810000 0.503219 0.985777 0.630651 -0.201474
3.820000 0.503850 0.987768 0.632658 -0.202095
3.830000 0.504335 0.989295 0.634198 -0.202571
3.840000 0.504672 0.990357 0.635269 -0.202902
3.850000 0.504862 0.990954 0.635871 -0.203088
3.860000 0.504903 0.991085 0.636003 -0.203129
3.870000 0.504797 0.990750 0.635665 -0.203025
3.880000 0.504543 0.989949 0.634858 -0.202775
3.890000 0.504141 0.988683 0.633581 -0.202380
3.900000 0.503592 0.986952 0.631836 -0.201840
3.910000 0.502896 0.984759 0.629625 -0.201157
3.920000 0.502053 0.982104 0.626949 -0.200329
3.930000 0.501065 0.978991 0.623810 -0.199358
3.940000 0.499933 0.975422 0.620212 -0.198245
3.950000 0.498656 0.971399 0.616156 -0.196991
3.960000 0.497237 0.966926 0.611647 -0.195596
3.970000 0.495676 0.962007 0.606687 -0.194062
3.980000 0.493974 0.956645 0.601281 -0.192390
3.990000 0.492134 0.950845 0.595434 -0.190582
4.000000 0.490156 0.944612 0.589150 -0.188638
4.010000 0.488042 0.937450 0.582264 -0.186413
4.020000 0.485794 0.928637 0.574535 -0.183695
4.030000 0.483413 0.919305 0.566352 -0.180816
4.040000 0.480902 0.909461 0.557720 -0.177780
4.050000 0.478263 0.899115 0.548647 -0.174588
4.060000 0.475497 0.888273 0.539140 -0.171244
4.070000 0.472608 0.876945 0.529206 -0.167750
4.080000 0.469597 0.865141 0.518855 -0.164109
4.090000 0.466466 0.852870 0.508093 -0.160324
4.100000 0.463220 0.840141 0.496931 -0.156397
4.110000 0.459859 0.826965 0.485377 -0.152333
4.120000 0.456386 0.813354 0.473441 -0.148135
4.130000 0.452806 0.811561 0.466292 -0.146390
4.140000 0.449120 0.813673 0.460600 -0.145429
4.150000 0.445331 0.815844 0.454750 -0.144441
4.160000 0.441443 0.818072 0.448747 -0.143427
4.170000 0.437459 0.820355 0.442594 -0.142389
4.180000 0.433381 0.822691 0.436298 -0.141326
4.190000 0.429214 0.825078 0.429864 -0.140239
4.200000 0.424961 0.827515 0.423296 -0.139131
4.210000 0.420625 0.830000 0.416600 -0.138000
4.220000 0.416209 0.831265 0.409416 -0.136963
4.230000 0.411718 0.832552 0.402107 -0.135908
4.240000 0.407155 0.833859 0.394682 -0.134836
4.250000 0.402523 0.835186 0.387145 -0.133748
4.260000 0.397826 0.836531 0.379503 -0.132644
4.270000 0.393069 0.837894 0.371762 -0.131527
4.280000 0.388255 0.839273 0.363928 -0.130396
4.290000 0.383388 0.836821 0.354574 -0.128560
4.300000 0.378471 0.830114 0.343548 -0.125945
4.310000 0.373510 0.823347 0.332422 -0.123305
4.320000 0.368508 0.816522 0.321203 -0.120644
