# time[s], AoA[rad], cl[-], cd[-], cm[-]
0.000000 0.322886 2.230775 0.758239 -0.108660
0.010000 0.328067 2.111346 0.730276 -0.122632
0.020000 0.333243 1.989239 0.687065 -0.138059
0.030000 0.338412 1.976301 0.667648 -0.139100
0.040000 0.343568 2.010331 0.645548 -0.138478
0.050000 0.348707 2.026517 0.621273 -0.138026
0.060000 0.353826 2.001271 0.598909 -0.143027
0.070000 0.358920 1.947282 0.569298 -0.151972
0.080000 0.363986 1.902843 0.541890 -0.161483
0.090000 0.369018 1.855139 0.520506 -0.170664
0.100000 0.374014 1.877030 0.528858 -0.201056
0.110000 0.378968 1.890545 0.545334 -0.232344
0.120000 0.383878 1.892429 0.574518 -0.267529
0.130000 0.388739 1.852608 0.688150 -0.298416
0.140000 0.393548 1.815483 0.775016 -0.331561
0.150000 0.398300 1.785201 0.825812 -0.359697
0.160000 0.402992 1.767837 0.831358 -0.379461
0.170000 0.407619 1.747765 0.833841 -0.393233
0.180000 0.412179 1.725857 0.834241 -0.402877
0.190000 0.416668 1.702454 0.833520 -0.410055
0.200000 0.421081 1.677945 0.831846 -0.415147
0.210000 0.425416 1.652661 0.829364 -0.418486
0.220000 0.429670 1.626883 0.826198 -0.420357
0.230000 0.433837 1.600848 0.822458 -0.421008
0.240000 0.437916 1.574753 0.818238 -0.420651
0.250000 0.441903 1.548762 0.813619 -0.419471
0.260000 0.445795 1.523009 0.808670 -0.417623
0.270000 0.449589 1.497605 0.803451 -0.415240
0.280000 0.453282 1.472634 0.798013 -0.412436
0.290000 0.456870 1.448166 0.792397 -0.409307
0.300000 0.460351 1.424251 0.786639 -0.405934
0.310000 0.463722 1.400927 0.780769 -0.402382
0.320000 0.466981 1.350452 0.760812 -0.396770
0.330000 0.470124 1.303913 0.742247 -0.392534
0.340000 0.473150 1.260998 0.724974 -0.388578
0.350000 0.476056 1.221420 0.708902 -0.384885
0.360000 0.478839 1.184917 0.693944 -0.381440
0.370000 0.481497 1.151246 0.680020 -0.378226
0.380000 0.484029 1.120185 0.667053 -0.375225
0.390000 0.486432 1.091530 0.654973 -0.372421
0.400000 0.488704 1.065092 0.643714 -0.369796
0.410000 0.490844 1.040699 0.633213 -0.367334
0.420000 0.492849 1.018191 0.623413 -0.365018
0.430000 0.494719 0.997421 0.614259 -0.362833
0.440000 0.496451 0.978253 0.605700 -0.360763
0.450000 0.498044 0.960562 0.597689 -0.358793
0.460000 0.499497 0.944234 0.590181 -0.356910
0.470000 0.500810 0.929161 0.583133 -0.355100
0.480000 0.501980 0.915245 0.576507 -0.353351
0.490000 0.503006 0.902396 0.570267 -0.351650
0.500000 0.503889 0.890530 0.564377 -0.349987
0.510000 0.504627 0.879569 0.558806 -0.348351
0.520000 0.505220 0.869440 0.553524 -0.346733
0.530000 0.505667 0.860078 0.548503 -0.345124
0.540000 0.505968 0.851422 0.543715 -0.343516
0.550000 0.506123 0.843413 0.539138 -0.341902
0.560000 0.506131 0.836000 0.534747 -0.340275
0.570000 0.505993 0.829134 0.530521 -0.338629
0.580000 0.505708 0.822768 0.526442 -0.336958
0.590000 0.505277 0.816856 0.522500 -0.335258
0.600000 0.504700 0.811268 0.518827 -0.333522
0.610000 0.503978 0.806084 0.515217 -0.331748
0.620000 0.503112 0.801270 0.511654 -0.329931
0.630000 0.502101 0.796794 0.508125 -0.328067
0.640000 0.500947 0.792629 0.504615 -0.326155
0.650000 0.499650 0.788746 0.501115 -0.324190
0.660000 0.498213 0.785121 0.497611 -0.322169
0.670000 0.496635 0.781732 0.494095 -0.320091
0.680000 0.494918 0.778556 0.490557 -0.317953
0.690000 0.493064 0.775574 0.486989 -0.315754
0.700000 0.491073 0.772768 0.483383 -0.313490
0.710000 0.488948 0.770098 0.479771 -0.311162
0.720000 0.486691 0.767472 0.476282 -0.308766
0.730000 0.484302 0.764956 0.472769 -0.306304
0.740000 0.481785 0.762539 0.469226 -0.303773
0.750000 0.479140 0.760207 0.465649 -0.301173
0.760000 0.476371 0.757950 0.462035 -0.298504
0.770000 0.473479 0.755757 0.458379 -0.295765
0.780000 0.470466 0.753619 0.454680 -0.292958
0.790000 0.467336 0.751528 0.450934 -0.290081
0.800000 0.464090 0.749475 0.447140 -0.287136
0.810000 0.460731 0.747455 0.443296 -0.284123
0.820000 0.457262 0.745461 0.439401 -0.281043
0.830000 0.453686 0.743487 0.435454 -0.277897
0.840000 0.450005 0.741529 0.431454 -0.274686
0.850000 0.446222 0.739581 0.427402 -0.271411
0.860000 0.442341 0.737641 0.423297 -0.268073
0.870000 0.438364 0.735704 0.419141 -0.264675
0.880000 0.434295 0.733769 0.414933 -0.261218
0.890000 0.430137 0.731834 0.410675 -0.257703
0.900000 0.425893 0.729895 0.406367 -0.254132
0.910000 0.421567 0.727953 0.402012 -0.250508
0.920000 0.417162 0.726006 0.397611 -0.246832
0.930000 0.412681 0.724054 0.393166 -0.243105
0.940000 0.408129 0.722096 0.388678 -0.239331
0.950000 0.403509 0.720133 0.384151 -0.235511
0.960000 0.398824 0.718167 0.379585 -0.231645
0.970000 0.394079 0.716196 0.374984 -0.227737
0.980000 0.389276 0.714224 0.370350 -0.223785
0.990000 0.384421 0.712251 0.365686 -0.219791
1.000000 0.379516 0.710280 0.360995 -0.215754
1.010000 0.374566 0.708313 0.356278 -0.211672
1.020000 0.369575 0.706351 0.351541 -0.207542
1.030000 0.364547 0.704399 0.346784 -0.203361
1.040000 0.359485 0.702458 0.342012 -0.199126
1.050000 0.354394 0.700532 0.337227 -0.194835
1.060000 0.349277 0.698625 0.332433 -0.192414
1.070000 0.344140 0.696739 0.327632 -0.194462
1.080000 0.338985 0.694879 0.322829 -0.196491
1.090000 0.333818 0.693048 0.318025 -0.198505
1.100000 0.328642 0.691251 0.313225 -0.191158
1.110000 0.323462 0.689491 0.308431 -0.182878
1.120000 0.318281 0.687774 0.303647 -0.174587
1.130000 0.313103 0.686102 0.298876 -0.161061
1.140000 0.307934 0.684481 0.294121 -0.143118
1.150000 0.302776 0.682914 0.289386 -0.125212
1.160000 0.297635 0.684142 0.285246 -0.110315
1.170000 0.292513 0.697624 0.283700 -0.110837
1.180000 0.287416 0.711582 0.282318 -0.111242
1.190000 0.282347 0.730471 0.277600 -0.111545
1.200000 0.277311 0.780695 0.248924 -0.113294
1.210000 0.272311 0.832441 0.220712 -0.114740
1.220000 0.267352 0.883987 0.191766 -0.115757
1.230000 0.262437 0.917912 0.149732 -0.115586
1.240000 0.257570 0.952164 0.107874 -0.115512
1.250000 0.252756 0.986638 0.067342 -0.115451
1.260000 0.247997 1.018317 0.065674 -0.115818
1.270000 0.243298 1.050447 0.064169 -0.115034
1.280000 0.238664 1.073133 0.062469 -0.113387
1.290000 0.234096 1.088150 0.060507 -0.111204
1.300000 0.229599 1.102659 0.058436 -0.109065
1.310000 0.225177 1.112969 0.056817 -0.106805
1.320000 0.220833 1.117870 0.055791 -0.104305
1.330000 0.216571 1.122082 0.054600 -0.101882
1.340000 0.212393 1.125699 0.053279 -0.099517
1.350000 0.208304 1.126133 0.051411 -0.097558
1.360000 0.204307 1.125697 0.049379 -0.095851
1.370000 0.200404 1.124783 0.047261 -0.094192
1.380000 0.196599 1.121208 0.045417 -0.092607
1.390000 0.192895 1.115378 0.043773 -0.091704
1.400000 0.189295 1.109147 0.042047 -0.090852
1.410000 0.185802 1.102610 0.040265 -0.090040
1.420000 0.182419 1.095669 0.039269 -0.089258
1.430000 0.179147 1.088487 0.038647 -0.088500
1.440000 0.175991 1.081218 0.038001 -0.087797
1.450000 0.172952 1.080228 0.037850 -0.087393
1.460000 0.170033 1.082679 0.038048 -0.087032
1.470000 0.167236 1.085465 0.038370 -0.086539
1.480000 0.164564 1.088471 0.038793 -0.085922
1.490000 0.162018 1.090978 0.039250 -0.085165
1.500000 0.159600 1.090237 0.039509 -0.084197
1.510000 0.157314 1.089398 0.039781 -0.083202
1.520000 0.155159 1.088481 0.040074 -0.082179
1.530000 0.153139 1.087503 0.040391 -0.081128
1.540000 0.151254 1.086485 0.040738 -0.080052
1.550000 0.149507 1.085443 0.041118 -0.078952
1.560000 0.147898 1.084398 0.041537 -0.077830
1.570000 0.146429 1.083366 0.041998 -0.076688
1.580000 0.145101 1.082368 0.042505 -0.075528
1.590000 0.143915 1.081425 0.043063 -0.074353
1.600000 0.142872 1.080264 0.043756 -0.073163
1.610000 0.141974 1.076029 0.045427 -0.071926
1.620000 0.141219 1.071918 0.047047 -0.070785
1.630000 0.140610 1.068007 0.048632 -0.069753
1.640000 0.140147 1.064365 0.050193 -0.068772
1.650000 0.139830 1.061049 0.051741 -0.067832
1.660000 0.139659 1.058108 0.053287 -0.066926
1.670000 0.139634 1.055586 0.054836 -0.066051
1.680000 0.139757 1.053516 0.056398 -0.065213
1.690000 0.140025 1.051930 0.057978 -0.064383
1.700000 0.140440 1.050853 0.059583 -0.063573
1.710000 0.141000 1.050304 0.061216 -0.062780
1.720000 0.141706 1.050300 0.062884 -0.062029
1.730000 0.142557 1.050853 0.064590 -0.061336
1.740000 0.143552 1.051974 0.066337 -0.060668
1.750000 0.144690 1.053669 0.068130 -0.060024
1.760000 0.145970 1.055941 0.069971 -0.059405
1.770000 0.147393 1.058793 0.071862 -0.058809
1.780000 0.148955 1.062224 0.073808 -0.058237
1.790000 0.150656 1.066231 0.075808 -0.057689
1.800000 0.152495 1.070810 0.077866 -0.057165
1.810000 0.154471 1.075955 0.079983 -0.056666
1.820000 0.156581 1.081659 0.082160 -0.056192
1.830000 0.158824 1.087914 0.084397 -0.055742
1.840000 0.161198 1.094711 0.086696 -0.055318
1.850000 0.163701 1.102038 0.089056 -0.054920
1.860000 0.166331 1.109886 0.091479 -0.054548
1.870000 0.169087 1.118243 0.093963 -0.054203
1.880000 0.171966 1.127097 0.096509 -0.053883
1.890000 0.174965 1.136436 0.099115 -0.053590
1.900000 0.178082 1.146247 0.101780 -0.053325
1.910000 0.181316 1.156518 0.104504 -0.053144
1.920000 0.184662 1.167236 0.107284 -0.052991
1.930000 0.188119 1.177245 0.110572 -0.052865
1.940000 0.191684 1.185705 0.114545 -0.052794
1.950000 0.195353 1.193811 0.118524 -0.052816
1.960000 0.199125 1.201547 0.122502 -0.053360
1.970000 0.202995 1.208899 0.126469 -0.054435
1.980000 0.206961 1.215852 0.130416 -0.055600
1.990000 0.211020 1.222394 0.134335 -0.056848
2.000000 0.215169 1.228515 0.138214 -0.058874
2.010000 0.219403 1.234207 0.142046 -0.061012
2.020000 0.223720 1.239463 0.145820 -0.063223
2.030000 0.228117 1.244281 0.149526 -0.065501
2.040000 0.232589 1.247673 0.153045 -0.067877
2.050000 0.237133 1.248409 0.156209 -0.070340
2.060000 0.241746 1.247995 0.159130 -0.072879
2.070000 0.246424 1.246460 0.161799 -0.075476
2.080000 0.251163 1.243839 0.164207 -0.077407
2.090000 0.255959 1.246462 0.167137 -0.079213
2.100000 0.260809 1.250695 0.170258 -0.081017
2.110000 0.265708 1.255486 0.173458 -0.082782
2.120000 0.270653 1.260477 0.177737 -0.085094
2.130000 0.275640 1.265848 0.182294 -0.087598
2.140000 0.280665 1.271622 0.186912 -0.090080
2.150000 0.285723 1.277760 0.191581 -0.092376
2.160000 0.290811 1.280847 0.196722 -0.094023
2.170000 0.295925 1.283567 0.201799 -0.095661
2.180000 0.301060 1.286094 0.206782 -0.105947
2.190000 0.306213 1.286952 0.211294 -0.124601
2.200000 0.311379 1.286441 0.215396 -0.143254
2.210000 0.316554 1.315689 0.229198 -0.169975
2.220000 0.321734 1.343027 0.242871 -0.187588
2.230000 0.326916 1.367402 0.259012 -0.205925
2.240000 0.332094 1.389582 0.274763 -0.223605
2.250000 0.337264 1.409614 0.290100 -0.232860
2.260000 0.342423 1.425976 0.308096 -0.241705
2.270000 0.347567 1.439245 0.325731 -0.250126
2.280000 0.352691 1.443233 0.359995 -0.259661
2.290000 0.357791 1.437001 0.413266 -0.271790
2.300000 0.362863 1.427888 0.465831 -0.282983
2.310000 0.367903 1.417045 0.514204 -0.294705
2.320000 0.372907 1.404506 0.556872 -0.307482
2.330000 0.377871 1.388197 0.598481 -0.319122
2.340000 0.382791 1.373511 0.626709 -0.328223
2.350000 0.387664 1.365222 0.632770 -0.334012
2.360000 0.392484 1.355439 0.638213 -0.338868
2.370000 0.397249 1.344601 0.642717 -0.342292
2.380000 0.401954 1.333516 0.645889 -0.343780
2.390000 0.406597 1.322216 0.648733 -0.344787
2.400000 0.411172 1.310784 0.651278 -0.345387
2.410000 0.415677 1.299285 0.653545 -0.345644
2.420000 0.420107 1.287775 0.655555 -0.345612
2.430000 0.424460 1.244249 0.642839 -0.342168
2.440000 0.428732 1.204023 0.631041 -0.339916
2.450000 0.432919 1.166853 0.620103 -0.337919
2.460000 0.437018 1.132514 0.609971 -0.336161
2.470000 0.441026 1.100797 0.600592 -0.334629
2.480000 0.444939 1.071510 0.591919 -0.333306
2.490000 0.448755 1.044472 0.583903 -0.332177
2.500000 0.452470 1.019520 0.576501 -0.331226
2.510000 0.456082 0.996500 0.569671 -0.330438
2.520000 0.459587 0.975270 0.563373 -0.329797
2.530000 0.462983 0.955699 0.557569 -0.329289
2.540000 0.466267 0.937664 0.552223 -0.328899
2.550000 0.469436 0.921052 0.547302 -0.328612
2.560000 0.472488 0.905759 0.542772 -0.328414
2.570000 0.475420 0.891688 0.538604 -0.328293
2.580000 0.478231 0.878746 0.534767 -0.328235
2.590000 0.480917 0.866852 0.531235 -0.328227
2.600000 0.483477 0.855925 0.527981 -0.328259
2.610000 0.485909 0.845895 0.524981 -0.328317
2.620000 0.488211 0.836692 0.522209 -0.328392
2.630000 0.490380 0.828255 0.519645 -0.328472
2.640000 0.492415 0.820525 0.517267 -0.328548
2.650000 0.494315 0.813448 0.515054 -0.328611
2.660000 0.496078 0.806972 0.512989 -0.328653
2.670000 0.497702 0.801051 0.511051 -0.328665
2.680000 0.499187 0.795641 0.509226 -0.328641
2.690000 0.500530 0.790700 0.507495 -0.328575
2.700000 0.501732 0.786192 0.505845 -0.328461
2.710000 0.502791 0.782079 0.504261 -0.328293
2.720000 0.503706 0.778329 0.502729 -0.328069
2.730000 0.504476 0.774910 0.501236 -0.327784
2.740000 0.505101 0.771795 0.499771 -0.327436
2.750000 0.505581 0.768955 0.498322 -0.327020
2.760000 0.505914 0.766367 0.496879 -0.326535
2.770000 0.506101 0.764006 0.495432 -0.325978
2.780000 0.506142 0.761850 0.493971 -0.325347
2.790000 0.506036 0.759879 0.492489 -0.324639
2.800000 0.505784 0.758075 0.490976 -0.323853
2.810000 0.505385 0.756418 0.489427 -0.322987
2.820000 0.504841 0.754894 0.487833 -0.322038
2.830000 0.504151 0.753427 0.486288 -0.321006
2.840000 0.503317 0.752046 0.484713 -0.319889
2.850000 0.502338 0.750774 0.483045 -0.318685
2.860000 0.501216 0.749598 0.481278 -0.317394
2.870000 0.499951 0.748505 0.479409 -0.316015
2.880000 0.498544 0.747485 0.477432 -0.314546
2.890000 0.496997 0.746527 0.475345 -0.312988
2.900000 0.495311 0.745624 0.473145 -0.311340
2.910000 0.493487 0.744764 0.470829 -0.309601
2.920000 0.491527 0.743942 0.468394 -0.307771
2.930000 0.489432 0.743087 0.465948 -0.305851
2.940000 0.487204 0.742201 0.463472 -0.303839
2.950000 0.484844 0.741314 0.460906 -0.301738
2.960000 0.482355 0.740420 0.458248 -0.299547
2.970000 0.479739 0.739513 0.455500 -0.297267
2.980000 0.476997 0.738589 0.452659 -0.294898
2.990000 0.474132 0.737645 0.449727 -0.292443
3.000000 0.471146 0.736676 0.446704 -0.289901
3.010000 0.468042 0.735679 0.443590 -0.287275
3.020000 0.464821 0.734652 0.440386 -0.284565
3.030000 0.461487 0.733592 0.437093 -0.281773
3.040000 0.458042 0.732497 0.433712 -0.278901
3.050000 0.454489 0.731366 0.430245 -0.275950
3.060000 0.450831 0.730197 0.426694 -0.272922
3.070000 0.447071 0.728989 0.423060 -0.269819
3.080000 0.443212 0.727742 0.419346 -0.266644
3.090000 0.439256 0.726456 0.415553 -0.263398
3.100000 0.435207 0.725130 0.411685 -0.260084
3.110000 0.431068 0.723766 0.407743 -0.256703
3.120000 0.426843 0.722363 0.403731 -0.253259
3.130000 0.422535 0.720922 0.399650 -0.249753
3.140000 0.418147 0.719446 0.395505 -0.246188
3.150000 0.413683 0.717934 0.391298 -0.242567
3.160000 0.409147 0.716390 0.387031 -0.238891
3.170000 0.404541 0.714814 0.382710 -0.235162
3.180000 0.399871 0.713210 0.378335 -0.231384
3.190000 0.395138 0.711579 0.373912 -0.227556
3.200000 0.390348 0.709925 0.369443 -0.223682
3.210000 0.385504 0.708250 0.364931 -0.219760
3.220000 0.380610 0.706558 0.360382 -0.215792
3.230000 0.375670 0.704851 0.355797 -0.211775
3.240000 0.370688 0.703133 0.351180 -0.207707
3.250000 0.365667 0.701408 0.346535 -0.203585
3.260000 0.360612 0.699680 0.341867 -0.199407
3.270000 0.355527 0.697953 0.337177 -0.195170
3.280000 0.350416 0.696231 0.332471 -0.191373
3.290000 0.345283 0.694517 0.327751 -0.193462
3.300000 0.340132 0.692818 0.323022 -0.195529
3.310000 0.334967 0.691136 0.318286 -0.197579
3.320000 0.329793 0.689478 0.313548 -0.192546
3.330000 0.324613 0.687847 0.308811 -0.184299
3.340000 0.319432 0.686248 0.304078 -0.176037
3.350000 0.314253 0.684686 0.299354 -0.164685
3.360000 0.309082 0.683166 0.294641 -0.146760
3.370000 0.303921 0.681693 0.289944 -0.128866
3.380000 0.298775 0.680272 0.285265 -0.111019
3.390000 0.293649 0.693310 0.283632 -0.110467
3.400000 0.288546 0.707248 0.282247 -0.110912
3.410000 0.283471 0.721668 0.281024 -0.111119
3.420000 0.278427 0.768585 0.254784 -0.112730
3.430000 0.273419 0.820059 0.226506 -0.114252
3.440000 0.268450 0.873039 0.198699 -0.115497
3.450000 0.263525 0.909570 0.158607 -0.115436
3.460000 0.258647 0.943810 0.116741 -0.115369
3.470000 0.253821 0.978358 0.075075 -0.115308
3.480000 0.249049 1.010635 0.065855 -0.115613
3.490000 0.244337 1.042720 0.064333 -0.115102
3.500000 0.239688 1.069154 0.062745 -0.113752
3.510000 0.235105 1.084323 0.060823 -0.111569
3.520000 0.230592 1.098975 0.058785 -0.109415
3.530000 0.226153 1.111301 0.056920 -0.107268
3.540000 0.221792 1.116395 0.055942 -0.104756
3.550000 0.217511 1.120777 0.054792 -0.102325
3.560000 0.213314 1.124542 0.053504 -0.099955
3.570000 0.209205 1.125755 0.051771 -0.097870
3.580000 0.205187 1.125461 0.049768 -0.096156
3.590000 0.201263 1.124668 0.047672 -0.094492
3.600000 0.197436 1.122101 0.045711 -0.092804
3.610000 0.193710 1.116394 0.044093 -0.091843
3.620000 0.190086 1.110262 0.042387 -0.090985
3.630000 0.186569 1.103803 0.040619 -0.090168
3.640000 0.183161 1.096981 0.039362 -0.089384
3.650000 0.179865 1.089843 0.038751 -0.088624
3.660000 0.176682 1.082603 0.038112 -0.087908
3.670000 0.173617 1.079547 0.037797 -0.087418
3.680000 0.170671 1.081919 0.037967 -0.087089
3.690000 0.167847 1.084652 0.038266 -0.086628
3.700000 0.165147 1.087629 0.038670 -0.086040
3.710000 0.162572 1.090747 0.039160 -0.085332
3.720000 0.160126 1.090276 0.039433 -0.084387
3.730000 0.157810 1.089464 0.039704 -0.083400
3.740000 0.155626 1.088569 0.039992 -0.082384
3.750000 0.153576 1.087610 0.040304 -0.081342
3.760000 0.151661 1.086605 0.040645 -0.080273
3.770000 0.149883 1.085573 0.041019 -0.079180
3.780000 0.148243 1.084532 0.041430 -0.078063
3.790000 0.146743 1.083502 0.041882 -0.076926
3.800000 0.145384 1.082500 0.042379 -0.075771
3.810000 0.144166 1.081548 0.042925 -0.074601
3.820000 0.143092 1.080666 0.043525 -0.073418
3.830000 0.142161 1.076874 0.045052 -0.072183
3.840000 0.141374 1.072734 0.046683 -0.071012
3.850000 0.140733 1.068778 0.048275 -0.069969
3.860000 0.140237 1.065076 0.049841 -0.068977
3.870000 0.139888 1.061688 0.051392 -0.068029
3.880000 0.139684 1.058664 0.052938 -0.067117
3.890000 0.139627 1.056050 0.054486 -0.066236
3.900000 0.139717 1.053881 0.056045 -0.065386
3.910000 0.139953 1.052189 0.057621 -0.064553
3.920000 0.140335 1.051000 0.059220 -0.063740
3.930000 0.140863 1.050335 0.060847 -0.062943
3.940000 0.141537 1.050211 0.062507 -0.062176
3.950000 0.142355 1.050643 0.064204 -0.061478
3.960000 0.143318 1.051639 0.065942 -0.060805
3.970000 0.144425 1.053209 0.067724 -0.060157
3.980000 0.145674 1.055355 0.069554 -0.059532
3.990000 0.147064 1.058080 0.071435 -0.058932
4.000000 0.148596 1.061384 0.073368 -0.058355
4.010000 0.150266 1.065265 0.075357 -0.057802
4.020000 0.152075 1.069719 0.077402 -0.057273
4.030000 0.154020 1.074741 0.079505 -0.056769
4.040000 0.156100 1.080323 0.081669 -0.056289
4.050000 0.158314 1.086457 0.083893 -0.055835
4.060000 0.160659 1.093136 0.086178 -0.055406
4.070000 0.163134 1.100348 0.088525 -0.055002
4.080000 0.165736 1.108082 0.090934 -0.054625
4.090000 0.168464 1.116328 0.093404 -0.054273
4.100000 0.171315 1.125074 0.095936 -0.053948
4.110000 0.174288 1.134307 0.098529 -0.053650
4.120000 0.177380 1.144015 0.101181 -0.053378
4.130000 0.180587 1.154185 0.103892 -0.053179
4.140000 0.183909 1.164806 0.106660 -0.053020
4.150000 0.187341 1.175333 0.109694 -0.052888
4.160000 0.190882 1.183868 0.113664 -0.052795
4.170000 0.194529 1.192053 0.117642 -0.052798
4.180000 0.198278 1.199871 0.121621 -0.053130
4.190000 0.202127 1.207309 0.125591 -0.054183
4.200000 0.206072 1.214350 0.129543 -0.055330
4.210000 0.210110 1.220984 0.133469 -0.056560
4.220000 0.214239 1.227199 0.137358 -0.058407
4.230000 0.218455 1.232985 0.141201 -0.060527
4.240000 0.222754 1.238338 0.144988 -0.062723
4.250000 0.227133 1.243253 0.148710 -0.064987
4.260000 0.231589 1.247385 0.152319 -0.067336
4.270000 0.236117 1.248377 0.155534 -0.069781
4.280000 0.240715 1.248214 0.158510 -0.072305
4.290000 0.245379 1.246923 0.161235 -0.074890
4.300000 0.250105 1.244537 0.163702 -0.077039
4.310000 0.254889 1.245676 0.166475 -0.078798
4.320000 0.259727 1.249769 0.169575 -0.080613
