# time[s], AoA[rad], cl[-], cd[-], cm[-]
0.000000 0.436332 2.831726 1.323270 -0.180041
0.010000 0.461295 2.808357 1.378553 -0.198880
0.020000 0.486210 2.792030 1.429782 -0.217683
0.030000 0.511032 2.774795 1.491745 -0.236416
0.040000 0.535713 2.737858 1.559134 -0.249111
0.050000 0.560207 2.680496 1.614233 -0.255944
0.060000 0.584469 2.618198 1.660404 -0.263137
0.070000 0.608452 2.556299 1.705595 -0.270317
0.080000 0.632112 2.496204 1.751169 -0.277402
0.090000 0.655404 2.438956 1.797978 -0.284338
0.100000 0.678284 2.385580 1.846856 -0.291078
0.110000 0.700710 2.338207 1.897868 -0.297461
0.120000 0.722639 2.302180 1.954220 -0.302869
0.130000 0.744029 2.286900 2.029002 -0.307248
0.140000 0.764842 2.283289 2.126465 -0.310964
0.150000 0.785037 2.278797 2.239395 -0.314615
0.160000 0.804576 2.276105 2.351133 -0.318149
0.170000 0.823424 2.276418 2.460300 -0.321557
0.180000 0.841544 2.280655 2.568406 -0.324839
0.190000 0.858903 2.261938 2.638838 -0.329927
0.200000 0.875468 2.241916 2.689057 -0.335814
0.210000 0.891207 2.247221 2.755176 -0.339899
0.220000 0.906092 2.272571 2.822723 -0.343455
0.230000 0.920093 2.304083 2.883626 -0.346782
0.240000 0.933186 2.320670 2.932198 -0.350361
0.250000 0.945345 2.318579 2.966938 -0.354502
0.260000 0.956547 2.315418 2.991971 -0.359131
0.270000 0.966772 2.307154 3.014548 -0.363970
0.280000 0.976000 2.321536 3.089420 -0.388198
0.290000 0.984213 2.187539 3.260187 -0.420751
0.300000 0.991397 2.123922 3.378613 -0.455194
0.310000 0.997538 2.135915 3.443866 -0.481773
0.320000 1.002624 2.150954 3.504340 -0.507572
0.330000 1.006647 2.169286 3.559790 -0.532505
0.340000 1.009597 2.191119 3.609983 -0.556507
0.350000 1.011470 2.215122 3.655636 -0.579534
0.360000 1.012262 2.237504 3.698976 -0.601529
0.370000 1.011972 2.263810 3.736391 -0.622432
0.380000 1.010600 2.294111 3.767691 -0.642219
0.390000 1.008148 2.328418 3.792698 -0.660875
0.400000 1.004623 2.365740 3.811842 -0.678478
0.410000 1.000029 2.400433 3.828519 -0.695521
0.420000 0.994376 2.438635 3.838637 -0.711348
0.430000 0.987674 2.480206 3.842062 -0.725953
0.440000 0.979936 2.524950 3.838680 -0.739336
0.450000 0.971176 2.572617 3.828396 -0.751499
0.460000 0.961412 2.619997 3.813151 -0.762976
0.470000 0.950660 2.666985 3.792827 -0.773655
0.480000 0.938942 2.715755 3.765671 -0.783050
0.490000 0.926280 2.765950 3.731673 -0.791172
0.500000 0.912697 2.817178 3.690854 -0.798037
0.510000 0.898218 2.869012 3.643269 -0.803660
0.520000 0.882872 2.920995 3.589007 -0.808061
0.530000 0.866686 2.970903 3.529657 -0.811608
0.540000 0.849691 3.018847 3.464965 -0.813859
0.550000 0.831920 3.065512 3.394158 -0.814821
0.560000 0.813406 3.110445 3.317447 -0.814523
0.570000 0.794182 3.153185 3.235079 -0.812997
0.580000 0.774287 3.193277 3.147340 -0.810275
0.590000 0.753756 3.230272 3.054551 -0.806390
0.600000 0.732628 3.263732 2.957070 -0.801378
0.610000 0.710944 3.293242 2.855290 -0.795275
0.620000 0.688744 3.318410 2.749631 -0.787942
0.630000 0.666069 3.338873 2.640544 -0.779342
0.640000 0.642963 3.354304 2.528502 -0.769757
0.650000 0.619468 3.364411 2.413998 -0.759228
0.660000 0.595629 3.368946 2.297542 -0.747795
0.670000 0.571491 3.367703 2.179655 -0.735500
0.680000 0.547099 3.360524 2.060863 -0.722383
0.690000 0.522498 3.347295 1.941694 -0.707881
0.700000 0.497736 3.327954 1.822674 -0.679583
0.710000 0.472858 3.302482 1.704317 -0.650526
0.720000 0.447912 3.270910 1.587126 -0.620779
0.730000 0.422944 3.233313 1.471589 -0.590409
0.740000 0.398001 3.189811 1.358167 -0.559484
0.750000 0.373130 3.140563 1.247301 -0.528072
0.760000 0.348378 3.085768 1.139400 -0.499290
0.770000 0.323791 3.025661 1.034844 -0.478951
0.780000 0.299416 2.960505 0.933978 -0.397904
0.790000 0.275297 2.890596 0.837113 -0.378102
0.800000 0.251482 2.816251 0.744523 -0.361645
0.810000 0.228014 2.737810 0.656445 -0.342010
0.820000 0.204937 2.655203 0.575021 -0.323588
0.830000 0.182296 2.568973 0.499971 -0.311815
0.840000 0.160131 2.479852 0.429718 -0.301813
0.850000 0.138486 2.388213 0.364279 -0.291817
0.860000 0.117401 2.294426 0.303636 -0.283054
0.870000 0.096915 2.198857 0.247741 -0.268849
0.880000 0.077066 2.101867 0.196515 -0.250456
0.890000 0.057893 2.003625 0.152655 -0.232681
0.900000 0.039431 1.904561 0.116460 -0.215672
0.910000 0.021715 1.805222 0.084152 -0.198211
0.920000 0.004778 1.705890 0.055495 -0.180715
0.930000 -0.011348 1.606833 0.030241 -0.163546
0.940000 -0.026632 1.508307 0.008137 -0.146607
0.950000 -0.041047 1.410753 0.000000 -0.130436
0.960000 -0.054564 1.314413 0.000000 -0.114674
0.970000 -0.067159 1.219375 0.000000 -0.099248
0.980000 -0.078808 1.125803 0.000000 -0.080692
0.990000 -0.089488 1.033855 0.000000 -0.060860
1.000000 -0.099180 0.943989 0.000000 -0.041918
1.010000 -0.107867 0.856606 0.000000 -0.025151
1.020000 -0.115530 0.771392 0.000000 -0.014750
1.030000 -0.122156 0.688455 0.000000 -0.004466
1.040000 -0.127733 0.607903 0.000000 0.005692
1.050000 -0.132249 0.529700 0.000000 0.019299
1.060000 -0.135698 0.430265 0.000000 0.051206
1.070000 -0.138071 0.350567 0.000000 0.074681
1.080000 -0.139364 0.286571 0.000000 0.085649
1.090000 -0.139576 0.227012 0.000000 0.090724
1.100000 -0.138706 0.228185 0.000000 0.173372
1.110000 -0.136755 0.220392 0.000000 0.172227
1.120000 -0.133726 0.153980 0.000000 0.175087
1.130000 -0.129627 0.007684 0.000000 0.182653
1.140000 -0.124464 -0.139042 0.010172 0.189831
1.150000 -0.118247 -0.295979 0.043126 0.197441
1.160000 -0.110988 -0.446321 0.061809 0.204287
1.170000 -0.102700 -0.565429 0.062899 0.205460
1.180000 -0.093399 -0.660044 0.051842 0.200393
1.190000 -0.083103 -0.748945 0.028843 0.194094
1.200000 -0.071831 -0.787185 0.000714 0.184584
1.210000 -0.059604 -0.728875 0.000000 0.176325
1.220000 -0.046444 -0.738588 0.000000 0.171798
1.230000 -0.032378 -0.766945 0.000000 0.168280
1.240000 -0.017430 -0.792541 0.000000 0.164872
1.250000 -0.001630 -0.829537 0.000000 0.161964
1.260000 0.014993 -0.877513 0.000000 0.159350
1.270000 0.032408 -0.892263 0.000000 0.155105
1.280000 0.050582 -0.883050 0.000000 0.150324
1.290000 0.069481 -0.870843 0.000000 0.145467
1.300000 0.089070 -0.851957 0.000000 0.140130
1.310000 0.109311 -0.836977 0.000000 0.135390
1.320000 0.130167 -0.820945 0.000000 0.139547
1.330000 0.151598 -0.801898 0.000000 0.143015
1.340000 0.173564 -0.784979 0.000000 0.145795
1.350000 0.196024 -0.770120 0.000000 0.148489
1.360000 0.218935 -0.757302 0.000000 0.144968
1.370000 0.242255 -0.746526 0.000000 0.138247
1.380000 0.265940 -0.737811 0.000000 0.135150
1.390000 0.289945 -0.731174 0.000000 0.130432
1.400000 0.314225 -0.726628 0.000000 0.075903
1.410000 0.338735 -0.724170 0.000000 0.045865
1.420000 0.363428 -0.723773 0.000000 0.041344
1.430000 0.388258 -0.725370 0.000000 0.021754
1.440000 0.413178 -0.728836 0.000000 0.002255
1.450000 0.438142 -0.733476 0.000000 -0.017146
1.460000 0.463102 -0.718624 0.000000 -0.036778
1.470000 0.488012 -0.701029 0.000000 -0.056316
1.480000 0.512825 -0.678872 0.000000 -0.075887
1.490000 0.537495 -0.640712 0.000000 -0.088833
1.500000 0.561974 -0.597723 0.000000 -0.095991
1.510000 0.586217 -0.527347 0.000000 -0.106829
1.520000 0.610178 -0.453683 0.000000 -0.118010
1.530000 0.633813 -0.406030 0.000000 -0.127494
1.540000 0.657076 -0.354390 0.000000 -0.137318
1.550000 0.679925 -0.295992 0.000000 -0.147665
1.560000 0.702316 -0.265411 0.000000 -0.155793
1.570000 0.724207 -0.214567 0.000000 -0.165401
1.580000 0.745557 -0.074172 0.000000 -0.181930
1.590000 0.766326 0.063047 0.057968 -0.197300
1.600000 0.786475 0.204222 0.218040 -0.212095
1.610000 0.805966 0.328543 0.359185 -0.225458
1.620000 0.824762 0.456950 0.496120 -0.238836
1.630000 0.842828 0.588837 0.633389 -0.251548
1.640000 0.860130 0.734952 0.773812 -0.264094
1.650000 0.876636 0.854083 0.882448 -0.274131
1.660000 0.892315 0.922220 0.948122 -0.280839
1.670000 0.907136 0.954619 0.983469 -0.285880
1.680000 0.921073 1.001114 1.034258 -0.292030
1.690000 0.934099 1.033919 1.080080 -0.297743
1.700000 0.946189 1.075965 1.170699 -0.330286
1.710000 0.957321 0.956305 1.371310 -0.380588
1.720000 0.967474 0.939587 1.491805 -0.423683
1.730000 0.976629 0.974055 1.572847 -0.447181
1.740000 0.984769 1.008748 1.650861 -0.469858
1.750000 0.991878 1.043968 1.725559 -0.491652
1.760000 0.997942 1.080000 1.796669 -0.512515
1.770000 1.002952 1.115881 1.864706 -0.532418
1.780000 1.006896 1.147565 1.932108 -0.551301
1.790000 1.009769 1.180770 1.995110 -0.569079
1.800000 1.011564 1.215702 2.053493 -0.585741
1.810000 1.012277 1.252525 2.107052 -0.601283
1.820000 1.011909 1.291358 2.155591 -0.615704
1.830000 1.010458 1.325117 2.203375 -0.630196
1.840000 1.007929 1.360561 2.246022 -0.643454
1.850000 1.004326 1.397906 2.283268 -0.655457
1.860000 0.999655 1.437151 2.314966 -0.666217
1.870000 0.993925 1.478248 2.340985 -0.675750
1.880000 0.987148 1.519280 2.362395 -0.684597
1.890000 0.979335 1.558050 2.380485 -0.693229
1.900000 0.970502 1.598053 2.392784 -0.700520
1.910000 0.960666 1.639132 2.399227 -0.706496
1.920000 0.949843 1.681093 2.399771 -0.711182
1.930000 0.938056 1.723699 2.394398 -0.714609
1.940000 0.925326 1.766678 2.383118 -0.716805
1.950000 0.911677 1.807939 2.367318 -0.718615
1.960000 0.897135 1.847487 2.346868 -0.719773
1.970000 0.881727 1.886390 2.320794 -0.719632
1.980000 0.865481 1.924338 2.289200 -0.717955
1.990000 0.848429 1.961002 2.252223 -0.714679
2.000000 0.830603 1.996041 2.210031 -0.710195
2.010000 0.812036 2.029105 2.162823 -0.704546
2.020000 0.792763 2.059840 2.110832 -0.697776
2.030000 0.772820 2.087897 2.054320 -0.689928
2.040000 0.752244 2.112933 1.993580 -0.681046
2.050000 0.731075 2.134617 1.928934 -0.671176
2.060000 0.709352 2.152637 1.860729 -0.660360
2.070000 0.687116 2.166370 1.789725 -0.648745
2.080000 0.664409 2.175843 1.715976 -0.636062
2.090000 0.641273 2.180966 1.639714 -0.622440
2.100000 0.617752 2.181537 1.561352 -0.607928
2.110000 0.593889 2.177389 1.481314 -0.592578
2.120000 0.569731 2.168386 1.400035 -0.576440
2.130000 0.545322 2.154426 1.317959 -0.559563
2.140000 0.520709 2.135445 1.235528 -0.540403
2.150000 0.495937 2.111415 1.153186 -0.508525
2.160000 0.471052 2.082001 1.072014 -0.476435
2.170000 0.446103 2.047516 0.991962 -0.443884
2.180000 0.421135 2.008093 0.913354 -0.410896
2.190000 0.396196 1.963865 0.836556 -0.377539
2.200000 0.371332 1.914996 0.761913 -0.343878
2.210000 0.346590 1.861682 0.689740 -0.315270
2.220000 0.322017 1.804145 0.620326 -0.289512
2.230000 0.297659 1.742631 0.553926 -0.206119
2.240000 0.273561 1.677405 0.490768 -0.187734
2.250000 0.249769 1.608753 0.431045 -0.170184
2.260000 0.226328 1.536973 0.374920 -0.149029
2.270000 0.203282 1.462316 0.322801 -0.129363
2.280000 0.180673 1.384481 0.277995 -0.117290
2.290000 0.158545 1.304574 0.236850 -0.106789
2.300000 0.136939 1.222910 0.199329 -0.096540
2.310000 0.115896 1.139794 0.165369 -0.087534
2.320000 0.095454 1.055529 0.134884 -0.072564
2.330000 0.075654 0.970410 0.107764 -0.054223
2.340000 0.056531 0.884592 0.085904 -0.036519
2.350000 0.038122 0.798322 0.071358 -0.019965
2.360000 0.020461 0.712140 0.059306 -0.003023
2.370000 0.003582 0.626265 0.049506 0.013786
2.380000 -0.012484 0.540903 0.041712 0.030147
2.390000 -0.027706 0.456250 0.035675 0.046189
2.400000 -0.042057 0.372698 0.036761 0.061324
2.410000 -0.055508 0.290426 0.041516 0.075908
2.420000 -0.068035 0.209467 0.046843 0.090065
2.430000 -0.079614 0.129940 0.052458 0.107659
2.440000 -0.090224 0.051960 0.058089 0.126026
2.450000 -0.099844 -0.023977 0.067283 0.143419
2.460000 -0.108456 -0.097627 0.080118 0.158051
2.470000 -0.116045 -0.169282 0.092198 0.166814
2.480000 -0.122596 -0.238856 0.103280 0.175385
2.490000 -0.128096 -0.306260 0.113145 0.183755
2.500000 -0.132535 -0.371567 0.118379 0.197348
2.510000 -0.135906 -0.463463 0.000000 0.228577
2.520000 -0.138201 -0.524803 0.000000 0.248715
2.530000 -0.139416 -0.575833 0.000000 0.256055
2.540000 -0.139549 -0.622897 0.000000 0.257886
2.550000 -0.138601 -0.599898 0.000000 0.427325
2.560000 -0.136571 -0.606703 0.000000 0.422058
2.570000 -0.133465 -0.679527 0.025890 0.421351
2.580000 -0.129288 -0.832011 0.082004 0.425832
2.590000 -0.124049 -0.975677 0.118695 0.429623
2.600000 -0.117756 -1.138825 0.144930 0.435298
2.610000 -0.110422 -1.284823 0.153587 0.438868
2.620000 -0.102060 -1.397077 0.144517 0.434773
2.630000 -0.092687 -1.486886 0.122648 0.425123
2.640000 -0.082319 -1.572861 0.087623 0.414503
2.650000 -0.070977 -1.557857 0.054208 0.398686
2.660000 -0.058681 -1.497242 0.030302 0.387109
2.670000 -0.045455 -1.517204 0.001179 0.380576
2.680000 -0.031324 -1.535441 0.000000 0.374304
2.690000 -0.016314 -1.551584 0.000000 0.368290
2.700000 -0.000453 -1.591889 0.000000 0.363523
2.710000 0.016229 -1.631074 0.000000 0.358498
2.720000 0.033700 -1.609239 0.000000 0.350399
2.730000 0.051928 -1.589912 0.000000 0.343209
2.740000 0.070878 -1.557327 0.000000 0.335448
2.750000 0.090515 -1.527680 0.000000 0.327758
2.760000 0.110802 -1.500242 0.000000 0.321376
2.770000 0.131701 -1.467042 0.000000 0.323148
2.780000 0.153172 -1.436193 0.000000 0.324312
2.790000 0.175175 -1.407570 0.000000 0.324969
2.800000 0.197669 -1.381107 0.000000 0.325455
2.810000 0.220612 -1.360689 0.000000 0.319537
2.820000 0.243960 -1.344405 0.000000 0.311102
2.830000 0.267669 -1.326760 0.000000 0.306454
2.840000 0.291696 -1.307762 0.000000 0.299826
2.850000 0.315994 -1.287430 0.000000 0.237467
2.860000 0.340518 -1.267014 0.000000 0.211852
2.870000 0.365223 -1.255544 0.000000 0.203301
2.880000 0.390061 -1.246152 0.000000 0.181957
2.890000 0.414986 -1.238735 0.000000 0.160742
2.900000 0.439951 -1.233120 0.000000 0.139664
2.910000 0.464910 -1.219296 0.000000 0.118541
2.920000 0.489814 -1.190838 0.000000 0.097281
2.930000 0.514618 -1.159285 0.000000 0.076093
2.940000 0.539275 -1.114281 0.000000 0.062653
2.950000 0.563739 -1.060186 0.000000 0.053546
2.960000 0.587963 -0.985431 0.000000 0.041674
2.970000 0.611902 -0.897629 0.000000 0.028002
2.980000 0.635512 -0.829621 0.000000 0.015724
2.990000 0.658747 -0.766835 0.000000 0.003710
3.000000 0.681564 -0.697183 0.000000 -0.008944
3.010000 0.703920 -0.647143 0.000000 -0.020100
3.020000 0.725773 -0.608887 0.000000 -0.030539
3.030000 0.747082 -0.455103 0.000000 -0.050832
3.040000 0.767808 -0.304118 0.000000 -0.069792
3.050000 0.787910 -0.151517 0.000000 -0.087824
3.060000 0.807352 -0.017604 0.000000 -0.103553
3.070000 0.826096 0.120840 0.136273 -0.119051
3.080000 0.844108 0.265904 0.276931 -0.134415
3.090000 0.861354 0.422424 0.420079 -0.149549
3.100000 0.877801 0.559800 0.537840 -0.162375
3.110000 0.893418 0.643602 0.608614 -0.171316
3.120000 0.908176 0.687131 0.647144 -0.178083
3.130000 0.922048 0.737888 0.693791 -0.185431
3.140000 0.935006 0.781631 0.743513 -0.192710
3.150000 0.947028 0.834513 0.832594 -0.224346
3.160000 0.958090 0.737894 1.023128 -0.275481
3.170000 0.968171 0.708855 1.158340 -0.325117
3.180000 0.977253 0.748977 1.241309 -0.350130
3.190000 0.985319 0.788907 1.321480 -0.374282
3.200000 0.992352 0.828953 1.398553 -0.397512
3.210000 0.998341 0.869399 1.472243 -0.419772
3.220000 1.003274 0.909929 1.542650 -0.441033
3.230000 1.007141 0.945222 1.613016 -0.461252
3.240000 1.009935 0.981647 1.679160 -0.480329
3.250000 1.011652 1.019419 1.740854 -0.498256
3.260000 1.012287 1.058710 1.797885 -0.515029
3.270000 1.011840 1.099652 1.850050 -0.530651
3.280000 1.010311 1.135891 1.901165 -0.546221
3.290000 1.007704 1.172797 1.947717 -0.560653
3.300000 1.004023 1.211278 1.989010 -0.573800
3.310000 0.999275 1.251349 2.024892 -0.585675
3.320000 0.993469 1.292978 2.055232 -0.596295
3.330000 0.986616 1.334864 2.080706 -0.606036
3.340000 0.978729 1.373676 2.103358 -0.615740
3.350000 0.969823 1.413470 2.120348 -0.624077
3.360000 0.959914 1.454110 2.131612 -0.631072
3.370000 0.949021 1.495417 2.137106 -0.636754
3.380000 0.937165 1.537175 2.136812 -0.641154
3.390000 0.924368 1.579129 2.130739 -0.644302
3.400000 0.910653 1.619690 2.119910 -0.646837
3.410000 0.896047 1.657968 2.104890 -0.648936
3.420000 0.880577 1.695479 2.084371 -0.649715
3.430000 0.864272 1.731934 2.058454 -0.648894
3.440000 0.847163 1.767022 2.027274 -0.646500
3.450000 0.829282 1.800423 1.990997 -0.642881
3.460000 0.810663 1.831804 1.949819 -0.638081
3.470000 0.791340 1.860834 1.903968 -0.632145
3.480000 0.771349 1.887180 1.853702 -0.625118
3.490000 0.750730 1.910519 1.799308 -0.617044
3.500000 0.729519 1.930538 1.741101 -0.607970
3.510000 0.707758 1.946942 1.679421 -0.597939
3.520000 0.685486 1.959419 1.614674 -0.586792
3.530000 0.662746 1.967447 1.547583 -0.574885
3.540000 0.639581 1.971216 1.478039 -0.562026
3.550000 0.616033 1.970542 1.406444 -0.548268
3.560000 0.592148 1.965268 1.333211 -0.533663
3.570000 0.567970 1.955272 1.258764 -0.518260
3.580000 0.543545 1.940462 1.183533 -0.502110
3.590000 0.518918 1.920783 1.107948 -0.482680
3.600000 0.494137 1.896005 1.032809 -0.451766
3.610000 0.469246 1.866188 0.958487 -0.420416
3.620000 0.444294 1.831509 0.885173 -0.388557
3.630000 0.419326 1.792068 0.813242 -0.356257
3.640000 0.394391 1.748001 0.743045 -0.323584
3.650000 0.369534 1.699474 0.674912 -0.290604
3.660000 0.344803 1.646682 0.609145 -0.264913
3.670000 0.320244 1.589843 0.546017 -0.236297
3.680000 0.295903 1.529200 0.485772 -0.156130
3.690000 0.271826 1.465016 0.428624 -0.138162
3.700000 0.248058 1.397570 0.374754 -0.121540
3.710000 0.224644 1.327153 0.324314 -0.100710
3.720000 0.201628 1.253821 0.278563 -0.082274
3.730000 0.179053 1.177658 0.238995 -0.071209
3.740000 0.156961 1.099553 0.202883 -0.061359
3.750000 0.135395 1.019809 0.170182 -0.051856
3.760000 0.114394 0.938724 0.140825 -0.043456
3.770000 0.093998 0.856588 0.114718 -0.028427
3.780000 0.074245 0.773687 0.091748 -0.010702
3.790000 0.055173 0.690092 0.074969 0.006129
3.800000 0.036817 0.606197 0.064012 0.022069
3.810000 0.019212 0.522443 0.055307 0.038453
3.820000 0.002390 0.439036 0.048612 0.054655
3.830000 -0.013616 0.356175 0.043684 0.070402
3.840000 -0.028776 0.274046 0.040275 0.085848
3.850000 -0.043062 0.193089 0.045089 0.100233
3.860000 -0.056447 0.113367 0.051919 0.114218
3.870000 -0.068906 0.034952 0.059089 0.127783
3.880000 -0.080416 -0.042043 0.066318 0.145175
3.890000 -0.090954 -0.117507 0.073341 0.162926
3.900000 -0.100502 -0.190825 0.084939 0.179696
3.910000 -0.109041 -0.261995 0.098728 0.193207
3.920000 -0.116555 -0.331203 0.111552 0.201419
3.930000 -0.123030 -0.398366 0.123179 0.209444
3.940000 -0.128453 -0.463396 0.133396 0.217270
3.950000 -0.132816 -0.529174 0.116397 0.234150
3.960000 -0.136108 -0.618408 0.000000 0.263683
3.970000 -0.138325 -0.674000 0.000000 0.280468
3.980000 -0.139462 -0.722726 0.000000 0.286600
3.990000 -0.139517 -0.767441 0.000000 0.287987
4.000000 -0.138490 -0.740259 0.000000 0.471939
4.010000 -0.136382 -0.755351 0.005334 0.466461
4.020000 -0.133198 -0.840920 0.054179 0.465790
4.030000 -0.128944 -0.991142 0.106838 0.469318
4.040000 -0.123628 -1.133076 0.140275 0.472332
4.050000 -0.117259 -1.299997 0.164355 0.477936
4.060000 -0.109850 -1.442847 0.169354 0.480855
4.070000 -0.101415 -1.550399 0.157070 0.475063
4.080000 -0.091969 -1.638838 0.131921 0.464458
4.090000 -0.081530 -1.723009 0.093616 0.452908
4.100000 -0.070118 -1.681415 0.061313 0.435582
4.110000 -0.057754 -1.634315 0.035236 0.424324
4.120000 -0.044461 -1.653037 0.003787 0.417319
4.130000 -0.030265 -1.669202 0.000000 0.410575
4.140000 -0.015193 -1.684872 0.000000 0.404162
4.150000 0.000729 -1.727935 0.000000 0.399166
4.160000 0.017469 -1.754833 0.000000 0.393154
4.170000 0.034996 -1.730376 0.000000 0.384571
4.180000 0.053277 -1.707588 0.000000 0.376919
4.190000 0.072278 -1.671973 0.000000 0.368668
4.200000 0.091964 -1.641063 0.000000 0.360594
4.210000 0.112296 -1.609533 0.000000 0.354422
4.220000 0.133238 -1.574613 0.000000 0.355833
4.230000 0.154749 -1.542019 0.000000 0.356507
4.240000 0.176789 -1.511636 0.000000 0.356807
4.250000 0.199317 -1.483406 0.000000 0.356533
4.260000 0.222290 -1.466226 0.000000 0.350246
4.270000 0.245666 -1.447890 0.000000 0.341407
4.280000 0.269400 -1.428171 0.000000 0.336490
4.290000 0.293448 -1.407080 0.000000 0.329747
4.300000 0.317764 -1.384637 0.000000 0.264479
