# time[s], AoA[rad], cl[-], cd[-], cm[-]
0.000000 0.322864 0.721491 0.225087 -0.088733
0.010000 0.315017 0.717379 0.208435 -0.086331
0.020000 0.307185 0.711973 0.193152 -0.083447
0.030000 0.299383 0.705711 0.178116 -0.080541
0.040000 0.291625 0.699139 0.163562 -0.078174
0.050000 0.283924 0.691878 0.149194 -0.075612
0.060000 0.276297 0.684082 0.132158 -0.072883
0.070000 0.268756 0.675409 0.113568 -0.069473
0.080000 0.261316 0.666351 0.095934 -0.065865
0.090000 0.253991 0.657049 0.080215 -0.062148
0.100000 0.246794 0.649170 0.066487 -0.056787
0.110000 0.239739 0.641754 0.063107 -0.050607
0.120000 0.232838 0.633998 0.059808 -0.044367
0.130000 0.226105 0.626109 0.056237 -0.037651
0.140000 0.219552 0.618058 0.052193 -0.030714
0.150000 0.213191 0.610145 0.048269 -0.023794
0.160000 0.207035 0.599983 0.045368 -0.024299
0.170000 0.201094 0.590868 0.042595 -0.024777
0.180000 0.195379 0.582806 0.039914 -0.025230
0.190000 0.189902 0.575651 0.036123 -0.024906
0.200000 0.184672 0.570053 0.031977 -0.024185
0.210000 0.179699 0.566186 0.027999 -0.023450
0.220000 0.174993 0.563569 0.024942 -0.023197
0.230000 0.170561 0.561809 0.023893 -0.023086
0.240000 0.166413 0.560858 0.022893 -0.022996
0.250000 0.162556 0.560745 0.021947 -0.022937
0.260000 0.158998 0.561127 0.021072 -0.022165
0.270000 0.155744 0.561414 0.020286 -0.021434
0.280000 0.152801 0.561755 0.019593 -0.020817
0.290000 0.150174 0.562273 0.018996 -0.020316
0.300000 0.147868 0.562999 0.018496 -0.020988
0.310000 0.145888 0.564098 0.018097 -0.022045
0.320000 0.144237 0.565707 0.017798 -0.023129
0.330000 0.142919 0.567874 0.017603 -0.024239
0.340000 0.141935 0.570531 0.017516 -0.025374
0.350000 0.141287 0.573651 0.017532 -0.026530
0.360000 0.140978 0.577341 0.017636 -0.027700
0.370000 0.141006 0.581597 0.017887 -0.028886
0.380000 0.141373 0.586363 0.018295 -0.030088
0.390000 0.142078 0.591826 0.018790 -0.031308
0.400000 0.143119 0.598179 0.019407 -0.032539
0.410000 0.144494 0.605468 0.020148 -0.033777
0.420000 0.146200 0.613722 0.021012 -0.035018
0.430000 0.148236 0.622957 0.022000 -0.036254
0.440000 0.150596 0.633181 0.023114 -0.037479
0.450000 0.153277 0.644386 0.024353 -0.038685
0.460000 0.156273 0.654134 0.025333 -0.039866
0.470000 0.159579 0.661898 0.025951 -0.041010
0.480000 0.163189 0.671497 0.026802 -0.042110
0.490000 0.167096 0.682851 0.027887 -0.043150
0.500000 0.171292 0.695891 0.029207 -0.044122
0.510000 0.175771 0.710547 0.030766 -0.045020
0.520000 0.180523 0.726715 0.034986 -0.045830
0.530000 0.185540 0.744306 0.039888 -0.046545
0.540000 0.190812 0.763220 0.045180 -0.047156
0.550000 0.196330 0.783369 0.050047 -0.047660
0.560000 0.202084 0.804650 0.054311 -0.048051
0.570000 0.208062 0.826959 0.058885 -0.048326
0.580000 0.214254 0.850202 0.063971 -0.048483
0.590000 0.220648 0.874194 0.070130 -0.049455
0.600000 0.227233 0.898840 0.076625 -0.050977
0.610000 0.233995 0.924311 0.082641 -0.052488
0.620000 0.240923 0.950651 0.088719 -0.054009
0.630000 0.248003 0.977676 0.095288 -0.054984
0.640000 0.255223 1.005280 0.113340 -0.055593
0.650000 0.262568 1.033340 0.131588 -0.056177
0.660000 0.270026 1.061587 0.152203 -0.056727
0.670000 0.277583 1.089603 0.173382 -0.057839
0.680000 0.285224 1.117674 0.192729 -0.058985
0.690000 0.292935 1.145544 0.210733 -0.059880
0.700000 0.300702 1.172425 0.229158 -0.059824
0.710000 0.308510 1.199072 0.248057 -0.059761
0.720000 0.316345 1.224780 0.267791 -0.060744
0.730000 0.324193 1.245554 0.289229 -0.068945
0.740000 0.332038 1.264955 0.310891 -0.077279
0.750000 0.339867 1.283145 0.331828 -0.085164
0.760000 0.347664 1.300478 0.353293 -0.092994
0.770000 0.355415 1.317257 0.376964 -0.100544
0.780000 0.363106 1.335995 0.401499 -0.105951
0.790000 0.370722 1.353641 0.426622 -0.111539
0.800000 0.378249 1.370052 0.452361 -0.116845
0.810000 0.385674 1.385668 0.478573 -0.122181
0.820000 0.392982 1.401401 0.500301 -0.128747
0.830000 0.400159 1.417815 0.522235 -0.136798
0.840000 0.407193 1.434024 0.544238 -0.145155
0.850000 0.414071 1.448589 0.566010 -0.151488
0.860000 0.420779 1.462203 0.587391 -0.157966
0.870000 0.427304 1.474686 0.607809 -0.164621
0.880000 0.433636 1.486131 0.627851 -0.171447
0.890000 0.439762 1.497057 0.647498 -0.178439
0.900000 0.445670 1.507649 0.666557 -0.185601
0.910000 0.451350 1.517473 0.684750 -0.192868
0.920000 0.456791 1.526319 0.704501 -0.199850
0.930000 0.461983 1.534165 0.731155 -0.205152
0.940000 0.466916 1.541197 0.756471 -0.210464
0.950000 0.471581 1.547489 0.780394 -0.215809
0.960000 0.475970 1.553070 0.802845 -0.221169
0.970000 0.480073 1.557893 0.823735 -0.226519
0.980000 0.483884 1.561924 0.843008 -0.231919
0.990000 0.487396 1.565190 0.860618 -0.237308
1.000000 0.490601 1.567724 0.876002 -0.242605
1.010000 0.493494 1.569476 0.889376 -0.247789
1.020000 0.496070 1.570278 0.901092 -0.252833
1.030000 0.498324 1.570174 0.911244 -0.257730
1.040000 0.500250 1.569471 0.919910 -0.262878
1.050000 0.501847 1.568986 0.927051 -0.271887
1.060000 0.503111 1.567764 0.932632 -0.280561
1.070000 0.504039 1.565800 0.936623 -0.288871
1.080000 0.504630 1.563082 0.938997 -0.296784
1.090000 0.504883 1.559579 0.939735 -0.304269
1.100000 0.504797 1.555084 0.938846 -0.311169
1.110000 0.504372 1.549044 0.936193 -0.317270
1.120000 0.503610 1.541027 0.931527 -0.322466
1.130000 0.502511 1.531082 0.924836 -0.326646
1.140000 0.501077 1.519351 0.916169 -0.329800
1.150000 0.499313 1.505961 0.905579 -0.331945
1.160000 0.497219 1.491026 0.893121 -0.333094
1.170000 0.494802 1.474646 0.878853 -0.333262
1.180000 0.492064 1.454148 0.861354 -0.308217
1.190000 0.489011 1.429328 0.840567 -0.284554
1.200000 0.485650 1.405033 0.818288 -0.262868
1.210000 0.481985 1.381365 0.795184 -0.244105
1.220000 0.478024 1.358372 0.771362 -0.227902
1.230000 0.473775 1.335958 0.746845 -0.213853
1.240000 0.469245 1.314028 0.721660 -0.201561
1.250000 0.464443 1.292494 0.695836 -0.190666
1.260000 0.459377 1.271271 0.669401 -0.180851
1.270000 0.454057 1.250279 0.645231 -0.171854
1.280000 0.448494 1.229595 0.628398 -0.163455
1.290000 0.442696 1.209352 0.611482 -0.155476
1.300000 0.436676 1.190180 0.594495 -0.150959
1.310000 0.430444 1.171685 0.577451 -0.147999
1.320000 0.424013 1.153615 0.560364 -0.145344
1.330000 0.417393 1.135952 0.542974 -0.142916
1.340000 0.410597 1.118678 0.525268 -0.140658
1.350000 0.403639 1.101777 0.507549 -0.138522
1.360000 0.396530 1.085228 0.489833 -0.136488
1.370000 0.389285 1.068974 0.472135 -0.134653
1.380000 0.381916 1.053048 0.452098 -0.132862
1.390000 0.374437 1.037433 0.429819 -0.131099
1.400000 0.366863 1.022099 0.407554 -0.129351
1.410000 0.359207 1.007004 0.385328 -0.127611
1.420000 0.351484 0.992180 0.363169 -0.124717
1.430000 0.343707 0.977600 0.342568 -0.120965
1.440000 0.335893 0.963219 0.322759 -0.117183
1.450000 0.328054 0.949026 0.302710 -0.113374
1.460000 0.320205 0.935017 0.282366 -0.109541
1.470000 0.312362 0.920976 0.262554 -0.105701
1.480000 0.304539 0.906538 0.244071 -0.101885
1.490000 0.296750 0.891757 0.225928 -0.098072
1.500000 0.289009 0.876087 0.208390 -0.092405
1.510000 0.281332 0.860042 0.191142 -0.086258
1.520000 0.273732 0.844333 0.169817 -0.080840
1.530000 0.266224 0.829479 0.148652 -0.076864
1.540000 0.258822 0.814475 0.129406 -0.072832
1.550000 0.251538 0.798910 0.111397 -0.068111
1.560000 0.244388 0.783227 0.099554 -0.063442
1.570000 0.237383 0.768794 0.094106 -0.057209
1.580000 0.230538 0.754927 0.088870 -0.049967
1.590000 0.223865 0.740984 0.083168 -0.042820
1.600000 0.217375 0.727784 0.077422 -0.035038
1.610000 0.211083 0.715013 0.072188 -0.027382
1.620000 0.204998 0.700573 0.067841 -0.024723
1.630000 0.199132 0.685240 0.063699 -0.025281
1.640000 0.193497 0.670788 0.059680 -0.025821
1.650000 0.188102 0.657583 0.054230 -0.025749
1.660000 0.182958 0.645783 0.049040 -0.025061
1.670000 0.178075 0.636061 0.044104 -0.024361
1.680000 0.173461 0.628692 0.041034 -0.024105
1.690000 0.169124 0.623474 0.039090 -0.023991
1.700000 0.165074 0.619821 0.037254 -0.023878
1.710000 0.161317 0.617288 0.035534 -0.023787
1.720000 0.157861 0.615958 0.033930 -0.022897
1.730000 0.154712 0.615204 0.032456 -0.022086
1.740000 0.151875 0.614438 0.031129 -0.021394
1.750000 0.149357 0.613830 0.029949 -0.020825
1.760000 0.147161 0.613417 0.028915 -0.021626
1.770000 0.145292 0.613370 0.028026 -0.022627
1.780000 0.143753 0.613828 0.027282 -0.023657
1.790000 0.142548 0.614908 0.026681 -0.024715
1.800000 0.141678 0.616561 0.026225 -0.025799
1.810000 0.141144 0.618700 0.025892 -0.026908
1.820000 0.140949 0.621410 0.025706 -0.028035
1.830000 0.141093 0.624641 0.025701 -0.029181
1.840000 0.141574 0.628297 0.025865 -0.030353
1.850000 0.142393 0.632627 0.026151 -0.031541
1.860000 0.143547 0.637900 0.026582 -0.032741
1.870000 0.145035 0.644172 0.027156 -0.033952
1.880000 0.146853 0.651458 0.027874 -0.035165
1.890000 0.148999 0.659776 0.028734 -0.036374
1.900000 0.151468 0.669126 0.029736 -0.037574
1.910000 0.154256 0.679502 0.030877 -0.038756
1.920000 0.157358 0.688366 0.031757 -0.039915
1.930000 0.160768 0.695183 0.032265 -0.041044
1.940000 0.164479 0.703887 0.033021 -0.042129
1.950000 0.168485 0.714418 0.034027 -0.043161
1.960000 0.172778 0.726687 0.035280 -0.044128
1.970000 0.177350 0.740608 0.037395 -0.045020
1.980000 0.182193 0.756080 0.041913 -0.045825
1.990000 0.187297 0.773026 0.046831 -0.046541
2.000000 0.192654 0.791304 0.052145 -0.047149
2.010000 0.198253 0.810848 0.056438 -0.047652
2.020000 0.204084 0.831545 0.060711 -0.048043
2.030000 0.210136 0.853284 0.065299 -0.048316
2.040000 0.216398 0.875974 0.070726 -0.048474
2.050000 0.222858 0.899382 0.076915 -0.049989
2.060000 0.229504 0.923550 0.083314 -0.051546
2.070000 0.236323 0.948593 0.089133 -0.053097
2.080000 0.243304 0.974452 0.095215 -0.054655
2.090000 0.250433 1.001058 0.105693 -0.055354
2.100000 0.257697 1.028197 0.123753 -0.055985
2.110000 0.265082 1.055757 0.142514 -0.056589
2.120000 0.272575 1.083401 0.163479 -0.057326
2.130000 0.280162 1.110847 0.184679 -0.058500
2.140000 0.287828 1.138425 0.202781 -0.059669
2.150000 0.295560 1.165413 0.220839 -0.060179
2.160000 0.303342 1.191757 0.239382 -0.060137
2.170000 0.311161 1.217852 0.258312 -0.060086
2.180000 0.319003 1.241340 0.278735 -0.063872
2.190000 0.326851 1.261281 0.300193 -0.072130
2.200000 0.334692 1.279779 0.321501 -0.080448
2.210000 0.342512 1.297373 0.342543 -0.088181
2.220000 0.350295 1.314020 0.364435 -0.096073
2.230000 0.358027 1.331377 0.388559 -0.102738
2.240000 0.365694 1.349326 0.413184 -0.108189
2.250000 0.373282 1.366396 0.438443 -0.113836
2.260000 0.380776 1.382011 0.464290 -0.118945
2.270000 0.388163 1.397134 0.488955 -0.124363
2.280000 0.395428 1.413025 0.510663 -0.131720
2.290000 0.402559 1.429057 0.532590 -0.139839
2.300000 0.409541 1.444625 0.554508 -0.147530
2.310000 0.416362 1.458643 0.576090 -0.153856
2.320000 0.423010 1.471692 0.597062 -0.160356
2.330000 0.429471 1.483528 0.617270 -0.167039
2.340000 0.435734 1.494567 0.637112 -0.173882
2.350000 0.441788 1.505167 0.656503 -0.180896
2.360000 0.447620 1.515327 0.675217 -0.188061
2.370000 0.453220 1.524643 0.693028 -0.195304
2.380000 0.458578 1.532980 0.715954 -0.201580
2.390000 0.463683 1.540369 0.742083 -0.206854
2.400000 0.468527 1.546989 0.766864 -0.212145
2.410000 0.473099 1.552884 0.790228 -0.217465
2.420000 0.477392 1.558067 0.812090 -0.222795
2.430000 0.481397 1.562495 0.832370 -0.228104
2.440000 0.485108 1.566121 0.851018 -0.233508
2.450000 0.488516 1.569011 0.867990 -0.238842
2.460000 0.491617 1.571179 0.882446 -0.244079
2.470000 0.494403 1.572499 0.895188 -0.249195
2.480000 0.496870 1.572857 0.906301 -0.254167
2.490000 0.499013 1.572417 0.915893 -0.259001
2.500000 0.500829 1.571719 0.923986 -0.265591
2.510000 0.502313 1.570891 0.930544 -0.274473
2.520000 0.503463 1.569327 0.935532 -0.283012
2.530000 0.504277 1.567021 0.938921 -0.291176
2.540000 0.504754 1.563954 0.940689 -0.298936
2.550000 0.504892 1.560067 0.940822 -0.306236
2.560000 0.504691 1.555056 0.939309 -0.312884
2.570000 0.504152 1.548323 0.935957 -0.318682
2.580000 0.503275 1.539562 0.930549 -0.323544
2.590000 0.502063 1.528927 0.923135 -0.327372
2.600000 0.500517 1.516554 0.913764 -0.330183
2.610000 0.498640 1.502564 0.902490 -0.331993
2.620000 0.496437 1.487068 0.889369 -0.332815
2.630000 0.493910 1.470164 0.874459 -0.332663
2.640000 0.491065 1.449391 0.856462 -0.307393
2.650000 0.487907 1.424615 0.835148 -0.283590
2.660000 0.484442 1.400406 0.812448 -0.261830
2.670000 0.480677 1.376864 0.789018 -0.242984
2.680000 0.476617 1.353970 0.764879 -0.226692
2.690000 0.472272 1.331626 0.740056 -0.212549
2.700000 0.467649 1.309741 0.714578 -0.200160
2.710000 0.462756 1.288225 0.688472 -0.189166
2.720000 0.457603 1.266994 0.661768 -0.179254
2.730000 0.452200 1.246016 0.640926 -0.170159
2.740000 0.446556 1.225393 0.623998 -0.161662
2.750000 0.440682 1.205269 0.606994 -0.153872
2.760000 0.434589 1.186400 0.589926 -0.150499
2.770000 0.428288 1.167970 0.572808 -0.147525
2.780000 0.421791 1.149960 0.555653 -0.144855
2.790000 0.415110 1.132355 0.538009 -0.142412
2.800000 0.408258 1.115132 0.520245 -0.140138
2.810000 0.401247 1.098282 0.502475 -0.137987
2.820000 0.394091 1.081764 0.484715 -0.135991
2.830000 0.386802 1.065556 0.466982 -0.134144
2.840000 0.379394 1.049672 0.445342 -0.132342
2.850000 0.371882 1.034096 0.423022 -0.130567
2.860000 0.364278 1.018790 0.400727 -0.128808
2.870000 0.356598 1.003711 0.378482 -0.127059
2.880000 0.348855 0.988934 0.356371 -0.123479
2.890000 0.341064 0.974367 0.336438 -0.119710
2.900000 0.333240 0.959996 0.316644 -0.115913
2.910000 0.325396 0.945814 0.296327 -0.112092
2.920000 0.317548 0.931810 0.276019 -0.108249
2.930000 0.309709 0.917633 0.256735 -0.104415
2.940000 0.301896 0.903022 0.238305 -0.100598
2.950000 0.294122 0.887989 0.220371 -0.096483
2.960000 0.286401 0.872031 0.202904 -0.090324
2.970000 0.278749 0.855878 0.184379 -0.084184
2.980000 0.271178 0.840580 0.162950 -0.079493
2.990000 0.263704 0.825639 0.141892 -0.075526
3.000000 0.256341 0.810373 0.123566 -0.071230
3.010000 0.249101 0.794774 0.105669 -0.066524
3.020000 0.241998 0.778983 0.097950 -0.061876
3.030000 0.235046 0.765256 0.092557 -0.054744
3.040000 0.228258 0.751302 0.087321 -0.047537
3.050000 0.221645 0.737548 0.081413 -0.040168
3.060000 0.215221 0.724477 0.075730 -0.032425
3.070000 0.208998 0.711780 0.070883 -0.024817
3.080000 0.202986 0.696316 0.066593 -0.024909
3.090000 0.197197 0.681143 0.062508 -0.025464
3.100000 0.191642 0.667074 0.057963 -0.025995
3.110000 0.186331 0.654199 0.052591 -0.025515
3.120000 0.181275 0.643068 0.047478 -0.024823
3.130000 0.176481 0.634134 0.042618 -0.024166
3.140000 0.171960 0.627502 0.040485 -0.024066
3.150000 0.167720 0.622855 0.038570 -0.023949
3.160000 0.163768 0.619555 0.036767 -0.023843
3.170000 0.160112 0.617401 0.035080 -0.023488
3.180000 0.156759 0.616240 0.033513 -0.022611
3.190000 0.153715 0.615458 0.032084 -0.021839
3.200000 0.150986 0.614717 0.030801 -0.021189
3.210000 0.148576 0.614150 0.029666 -0.020982
3.220000 0.146491 0.613827 0.028677 -0.021963
3.230000 0.144733 0.613923 0.027834 -0.022974
3.240000 0.143307 0.614567 0.027136 -0.024013
3.250000 0.142215 0.615829 0.026580 -0.025080
3.260000 0.141459 0.617644 0.026170 -0.026173
3.270000 0.141040 0.619951 0.025873 -0.027288
3.280000 0.140960 0.622817 0.025746 -0.028422
3.290000 0.141218 0.626174 0.025803 -0.029578
3.300000 0.141813 0.630037 0.026004 -0.030755
3.310000 0.142746 0.634667 0.026337 -0.031948
3.320000 0.144013 0.640265 0.026815 -0.033153
3.330000 0.145613 0.646871 0.027437 -0.034365
3.340000 0.147543 0.654492 0.028202 -0.035577
3.350000 0.149799 0.663150 0.029109 -0.036784
3.360000 0.152377 0.672843 0.030157 -0.037979
3.370000 0.155272 0.683553 0.031345 -0.039153
3.380000 0.158479 0.692842 0.032284 -0.040300
3.390000 0.161991 0.700221 0.032871 -0.041415
3.400000 0.165803 0.709476 0.033707 -0.042484
3.410000 0.169907 0.720525 0.034792 -0.043495
3.420000 0.174295 0.733285 0.036126 -0.044439
3.430000 0.178960 0.747673 0.039241 -0.045305
3.440000 0.183893 0.763581 0.043892 -0.046082
3.450000 0.189084 0.780913 0.048941 -0.046762
3.460000 0.194524 0.799573 0.054138 -0.047339
3.470000 0.200202 0.819456 0.058199 -0.047806
3.480000 0.206110 0.840455 0.062576 -0.048159
3.490000 0.212234 0.862469 0.067268 -0.048395
3.500000 0.218564 0.885350 0.073125 -0.048954
3.510000 0.225088 0.908938 0.079427 -0.050523
3.520000 0.231794 0.933344 0.085590 -0.052074
3.530000 0.238670 0.958639 0.091501 -0.053625
3.540000 0.245703 0.984707 0.097656 -0.054918
3.550000 0.252879 1.011479 0.112114 -0.055571
3.560000 0.260185 1.038734 0.130239 -0.056189
3.570000 0.267609 1.066313 0.149911 -0.056775
3.580000 0.275135 1.093829 0.170953 -0.057711
3.590000 0.282750 1.121300 0.191365 -0.058878
3.600000 0.290440 1.148855 0.209174 -0.060039
3.610000 0.298191 1.175395 0.227350 -0.060130
3.620000 0.305987 1.201625 0.246070 -0.060073
3.630000 0.313815 1.227562 0.265095 -0.060004
3.640000 0.321661 1.249180 0.286277 -0.066574
3.650000 0.329508 1.268653 0.307820 -0.074864
3.660000 0.337344 1.286692 0.328839 -0.082942
3.670000 0.345153 1.303939 0.350056 -0.090701
3.680000 0.352920 1.320114 0.372821 -0.098630
3.690000 0.360632 1.338330 0.397112 -0.104386
3.700000 0.368274 1.355919 0.421944 -0.109872
3.710000 0.375832 1.372473 0.447409 -0.115302
3.720000 0.383291 1.387915 0.473405 -0.120480
3.730000 0.390638 1.402951 0.496525 -0.126204
3.740000 0.397859 1.419182 0.518311 -0.134094
3.750000 0.404941 1.435151 0.540241 -0.142277
3.760000 0.411870 1.450059 0.562049 -0.149212
3.770000 0.418634 1.463736 0.583500 -0.155557
3.780000 0.425220 1.476382 0.604144 -0.162076
3.790000 0.431615 1.487874 0.624230 -0.168777
3.800000 0.437809 1.498742 0.643936 -0.175640
3.810000 0.443788 1.509215 0.663122 -0.182671
3.820000 0.449543 1.519092 0.681534 -0.189833
3.830000 0.455063 1.528050 0.699022 -0.197042
3.840000 0.460336 1.536047 0.725132 -0.202615
3.850000 0.465353 1.543151 0.750809 -0.207860
3.860000 0.470106 1.549506 0.775116 -0.213133
3.870000 0.474585 1.555150 0.797977 -0.218430
3.880000 0.478781 1.560056 0.819306 -0.223728
3.890000 0.482688 1.564201 0.839035 -0.229043
3.900000 0.486296 1.567563 0.857117 -0.234407
3.910000 0.489601 1.570195 0.873261 -0.239691
3.920000 0.492596 1.572108 0.887105 -0.244872
3.930000 0.495275 1.573107 0.899273 -0.249927
3.940000 0.497632 1.573120 0.909841 -0.254833
3.950000 0.499665 1.572441 0.918929 -0.259610
3.960000 0.501369 1.571841 0.926504 -0.267626
3.970000 0.502740 1.570755 0.932532 -0.276388
3.980000 0.503777 1.568933 0.936980 -0.284799
3.990000 0.504477 1.566365 0.939821 -0.292826
4.000000 0.504839 1.563028 0.941033 -0.300440
4.010000 0.504862 1.558780 0.940615 -0.307533
4.020000 0.504546 1.553197 0.938490 -0.313900
4.030000 0.503893 1.545764 0.934439 -0.319394
4.040000 0.502902 1.536356 0.928348 -0.323916
4.050000 0.501577 1.525121 0.920266 -0.327414
4.060000 0.499918 1.512190 0.910245 -0.329903
4.070000 0.497931 1.497681 0.898339 -0.331397
4.080000 0.495617 1.481697 0.884605 -0.331912
4.090000 0.492982 1.461369 0.867509 -0.307171
4.100000 0.490031 1.436427 0.846962 -0.283826
4.110000 0.486768 1.411971 0.825215 -0.262441
4.120000 0.483200 1.388111 0.802363 -0.243982
4.130000 0.479334 1.364940 0.778785 -0.228068
4.140000 0.475178 1.342380 0.754504 -0.214287
4.150000 0.470737 1.320332 0.729546 -0.202239
4.160000 0.466022 1.298708 0.703939 -0.191563
4.170000 0.461040 1.277420 0.677710 -0.181947
4.180000 0.455801 1.256381 0.650893 -0.173125
4.190000 0.450315 1.235621 0.633580 -0.164887
4.200000 0.444592 1.215255 0.616701 -0.157051
4.210000 0.438642 1.195685 0.599747 -0.151242
4.220000 0.432478 1.177065 0.582732 -0.148327
4.230000 0.426109 1.158883 0.565668 -0.145713
4.240000 0.419549 1.141103 0.548479 -0.143318
4.250000 0.412808 1.123728 0.530791 -0.141091
4.260000 0.405901 1.106726 0.513084 -0.138982
4.270000 0.398839 1.090086 0.495374 -0.136956
4.280000 0.391636 1.073753 0.477678 -0.135108
4.290000 0.384306 1.057739 0.459129 -0.133334
4.300000 0.376861 1.042041 0.436859 -0.131586
4.310000 0.369316 1.026635 0.414595 -0.129852
4.320000 0.361685 1.011482 0.392361 -0.128124
