# time[s], AoA[rad], cl[-], cd[-], cm[-]
0.000000 0.322864 0.745127 0.225088 -0.088937
0.010000 0.315017 0.733395 0.214034 -0.087259
0.020000 0.307185 0.723844 0.203133 -0.085692
0.030000 0.299383 0.718857 0.192731 -0.084634
0.040000 0.291625 0.713481 0.182213 -0.083280
0.050000 0.283924 0.706412 0.171752 -0.081452
0.060000 0.276297 0.697542 0.161402 -0.079217
0.070000 0.268756 0.688560 0.151028 -0.076953
0.080000 0.261316 0.683045 0.139552 -0.074957
0.090000 0.253991 0.684175 0.125840 -0.073466
0.100000 0.246794 0.684729 0.112179 -0.071593
0.110000 0.239739 0.685455 0.098921 -0.069314
0.120000 0.232838 0.688762 0.087225 -0.066859
0.130000 0.226105 0.690906 0.075655 -0.063868
0.140000 0.219552 0.690384 0.066539 -0.060653
0.150000 0.213191 0.684963 0.064014 -0.056082
0.160000 0.207035 0.679781 0.061527 -0.050945
0.170000 0.201094 0.674951 0.059080 -0.045976
0.180000 0.195379 0.668593 0.056354 -0.041007
0.190000 0.189902 0.661037 0.053336 -0.035412
0.200000 0.184672 0.654707 0.050376 -0.030200
0.210000 0.179699 0.649580 0.047525 -0.025348
0.220000 0.174993 0.645232 0.045352 -0.023944
0.230000 0.170561 0.641738 0.043236 -0.024086
0.240000 0.166413 0.639015 0.041184 -0.024242
0.250000 0.162556 0.637081 0.039201 -0.024421
0.260000 0.158998 0.635721 0.037134 -0.024370
0.270000 0.155744 0.634186 0.034296 -0.023934
0.280000 0.152801 0.632933 0.031635 -0.023598
0.290000 0.150174 0.632029 0.029159 -0.023361
0.300000 0.147868 0.631522 0.026874 -0.023417
0.310000 0.145888 0.631446 0.024787 -0.023698
0.320000 0.144237 0.631846 0.022903 -0.024068
0.330000 0.142919 0.633110 0.022062 -0.024622
0.340000 0.141935 0.634986 0.021565 -0.025269
0.350000 0.141287 0.637410 0.021142 -0.025973
0.360000 0.140978 0.640349 0.020800 -0.026390
0.370000 0.141006 0.643685 0.020544 -0.026830
0.380000 0.141373 0.647349 0.020380 -0.027336
0.390000 0.142078 0.651353 0.020307 -0.027909
0.400000 0.143119 0.655748 0.020330 -0.028542
0.410000 0.144494 0.660582 0.020448 -0.029232
0.420000 0.146200 0.665895 0.020664 -0.029977
0.430000 0.148236 0.671724 0.020978 -0.030772
0.440000 0.150596 0.678099 0.021393 -0.031614
0.450000 0.153277 0.685075 0.021907 -0.032722
0.460000 0.156273 0.692711 0.022521 -0.033904
0.470000 0.159579 0.701012 0.023238 -0.035059
0.480000 0.163189 0.709960 0.024058 -0.036185
0.490000 0.167096 0.719536 0.024982 -0.037271
0.500000 0.171292 0.729719 0.026031 -0.038312
0.510000 0.175771 0.740810 0.028338 -0.039333
0.520000 0.180523 0.752470 0.030873 -0.040280
0.530000 0.185540 0.764662 0.033633 -0.041146
0.540000 0.190812 0.777376 0.036615 -0.042178
0.550000 0.196330 0.790641 0.039813 -0.043344
0.560000 0.202084 0.804455 0.043224 -0.044509
0.570000 0.208062 0.818625 0.046415 -0.045663
0.580000 0.214254 0.833025 0.049137 -0.046806
0.590000 0.220648 0.847852 0.051992 -0.047946
0.600000 0.227233 0.863068 0.054974 -0.049076
0.610000 0.233995 0.878635 0.058076 -0.050197
0.620000 0.240923 0.894414 0.061504 -0.051297
0.630000 0.248003 0.910186 0.065478 -0.052016
0.640000 0.255223 0.925951 0.069558 -0.052406
0.650000 0.262568 0.941593 0.073728 -0.052699
0.660000 0.270026 0.954688 0.077333 -0.052906
0.670000 0.277583 0.966841 0.080836 -0.053050
0.680000 0.285224 0.978440 0.084347 -0.053131
0.690000 0.292935 0.989402 0.087851 -0.053613
0.700000 0.300702 0.993828 0.099581 -0.052420
0.710000 0.308510 0.996737 0.111493 -0.050469
0.720000 0.316345 0.998211 0.123442 -0.047682
0.730000 0.324193 1.000501 0.137181 -0.043951
0.740000 0.332038 1.000548 0.150838 -0.039674
0.750000 0.339867 0.998355 0.164395 -0.034895
0.760000 0.347664 1.001566 0.175356 -0.032051
0.770000 0.355415 1.003896 0.185918 -0.037364
0.780000 0.363106 1.004133 0.196347 -0.043826
0.790000 0.370722 1.000514 0.206771 -0.050877
0.800000 0.378249 0.994810 0.217097 -0.057446
0.810000 0.385674 0.988420 0.227430 -0.064285
0.820000 0.392982 0.987081 0.238961 -0.072550
0.830000 0.400159 0.985292 0.250389 -0.078894
0.840000 0.407193 0.983550 0.261727 -0.083076
0.850000 0.414071 0.978504 0.272171 -0.086885
0.860000 0.420779 0.973633 0.282516 -0.090610
0.870000 0.427304 0.968816 0.292739 -0.094143
0.880000 0.433636 0.964352 0.304093 -0.097924
0.890000 0.439762 0.960040 0.315493 -0.101987
0.900000 0.445670 0.956112 0.326716 -0.106268
0.910000 0.451350 0.952758 0.337752 -0.110409
0.920000 0.456791 0.949915 0.348580 -0.114205
0.930000 0.461983 0.947389 0.359166 -0.116891
0.940000 0.466916 0.944988 0.369483 -0.119548
0.950000 0.471581 0.940912 0.377494 -0.121649
0.960000 0.475970 0.936102 0.384290 -0.123267
0.970000 0.480073 0.931482 0.390867 -0.124801
0.980000 0.483884 0.927060 0.397213 -0.126280
0.990000 0.487396 0.922837 0.403316 -0.127705
1.000000 0.490601 0.918814 0.409166 -0.129074
1.010000 0.493494 0.914993 0.414752 -0.130387
1.020000 0.496070 0.911374 0.420064 -0.131643
1.030000 0.498324 0.907928 0.425089 -0.132729
1.040000 0.500250 0.904227 0.429542 -0.133266
1.050000 0.501847 0.900487 0.433702 -0.133791
1.060000 0.503111 0.896739 0.437564 -0.134303
1.070000 0.504039 0.893011 0.441124 -0.134802
1.080000 0.504630 0.889329 0.444375 -0.135285
1.090000 0.504883 0.885717 0.447315 -0.135750
1.100000 0.504797 0.882157 0.449879 -0.136198
1.110000 0.504372 0.878615 0.451969 -0.136624
1.120000 0.503610 0.875104 0.453565 -0.137023
1.130000 0.502511 0.871641 0.454670 -0.137480
1.140000 0.501077 0.868237 0.455284 -0.137956
1.150000 0.499313 0.864906 0.455411 -0.138378
1.160000 0.497219 0.861664 0.455056 -0.138744
1.170000 0.494802 0.858522 0.454223 -0.139048
1.180000 0.492064 0.855490 0.452918 -0.139289
1.190000 0.489011 0.852572 0.451147 -0.139464
1.200000 0.485650 0.849772 0.448918 -0.139570
1.210000 0.481985 0.847088 0.446239 -0.139606
1.220000 0.478024 0.844517 0.443119 -0.139571
1.230000 0.473775 0.842055 0.439567 -0.139464
1.240000 0.469245 0.839693 0.435594 -0.139283
1.250000 0.464443 0.837421 0.431212 -0.139028
1.260000 0.459377 0.835227 0.426431 -0.138700
1.270000 0.454057 0.833100 0.421265 -0.138297
1.280000 0.448494 0.830856 0.415591 -0.137778
1.290000 0.442696 0.828424 0.409376 -0.137129
1.300000 0.436676 0.825997 0.402798 -0.136406
1.310000 0.430444 0.823559 0.395872 -0.135609
1.320000 0.424013 0.821098 0.388616 -0.134741
1.330000 0.417393 0.818597 0.381046 -0.133825
1.340000 0.410597 0.816035 0.373178 -0.132967
1.350000 0.403639 0.813388 0.365030 -0.132052
1.360000 0.396530 0.808900 0.355018 -0.130576
1.370000 0.389285 0.802483 0.343063 -0.128519
1.380000 0.381916 0.795902 0.330797 -0.126401
1.390000 0.374437 0.789161 0.318246 -0.124229
1.400000 0.366863 0.782267 0.305435 -0.122009
1.410000 0.359207 0.775227 0.292392 -0.119747
1.420000 0.351484 0.768050 0.279142 -0.117450
1.430000 0.343707 0.761315 0.267187 -0.114925
1.440000 0.335893 0.754299 0.255250 -0.112333
1.450000 0.328054 0.746927 0.243202 -0.109698
1.460000 0.320205 0.734439 0.230397 -0.106019
1.470000 0.312362 0.721631 0.217530 -0.102363
1.480000 0.304539 0.709933 0.204803 -0.098993
1.490000 0.296750 0.705340 0.193005 -0.096934
1.500000 0.289009 0.700417 0.181211 -0.094689
1.510000 0.281332 0.693284 0.169651 -0.092027
1.520000 0.273732 0.684779 0.158272 -0.089140
1.530000 0.266224 0.676075 0.146964 -0.085635
1.540000 0.258822 0.675568 0.132981 -0.082765
1.550000 0.251538 0.676701 0.118250 -0.079804
1.560000 0.244388 0.676884 0.103678 -0.076673
1.570000 0.237383 0.680156 0.090857 -0.073706
1.580000 0.230538 0.683083 0.078521 -0.070316
1.590000 0.223865 0.684261 0.067274 -0.066338
1.600000 0.217375 0.678733 0.064611 -0.063088
1.610000 0.211083 0.672925 0.062006 -0.059839
1.620000 0.204998 0.667165 0.059455 -0.053710
1.630000 0.199132 0.659636 0.056581 -0.047543
1.640000 0.193497 0.650921 0.053441 -0.041569
1.650000 0.188102 0.643308 0.050375 -0.035354
1.660000 0.182958 0.636937 0.047604 -0.029611
1.670000 0.178075 0.631726 0.045374 -0.024443
1.680000 0.173461 0.627701 0.043198 -0.024221
1.690000 0.169124 0.624546 0.041088 -0.024348
1.700000 0.165074 0.622246 0.039050 -0.024487
1.710000 0.161317 0.620192 0.036213 -0.024452
1.720000 0.157861 0.618544 0.033246 -0.023898
1.730000 0.154712 0.617158 0.030457 -0.023449
1.740000 0.151875 0.616101 0.027853 -0.023105
1.750000 0.149357 0.615421 0.025440 -0.023079
1.760000 0.147161 0.615305 0.023591 -0.023337
1.770000 0.145292 0.616042 0.022935 -0.023815
1.780000 0.143753 0.617201 0.022348 -0.024357
1.790000 0.142548 0.618840 0.021833 -0.024961
1.800000 0.141678 0.620962 0.021393 -0.025417
1.810000 0.141144 0.623511 0.021035 -0.025718
1.820000 0.140949 0.626482 0.020763 -0.026092
1.830000 0.141093 0.629852 0.020578 -0.026536
1.840000 0.141574 0.633560 0.020483 -0.027050
1.850000 0.142393 0.637659 0.020480 -0.027629
1.860000 0.143547 0.642197 0.020571 -0.028268
1.870000 0.145035 0.647256 0.020757 -0.029226
1.880000 0.146853 0.652950 0.021036 -0.030487
1.890000 0.148999 0.659339 0.021412 -0.031746
1.900000 0.151468 0.666425 0.021887 -0.032998
1.910000 0.154256 0.674203 0.022464 -0.034237
1.920000 0.157358 0.682663 0.023145 -0.035458
1.930000 0.160768 0.691791 0.023933 -0.036655
1.940000 0.164479 0.701571 0.024829 -0.037819
1.950000 0.168485 0.711978 0.025834 -0.038945
1.960000 0.172778 0.722985 0.026949 -0.040024
1.970000 0.177350 0.734558 0.028172 -0.041049
1.980000 0.182193 0.746737 0.029779 -0.042016
1.990000 0.187297 0.759733 0.032702 -0.042925
2.000000 0.192654 0.773204 0.035848 -0.043730
2.010000 0.198253 0.787102 0.039211 -0.044429
2.020000 0.204084 0.801378 0.042783 -0.045010
2.030000 0.210136 0.816023 0.046556 -0.045835
2.040000 0.216398 0.830907 0.049990 -0.046984
2.050000 0.222858 0.846007 0.052954 -0.048127
2.060000 0.229504 0.861497 0.056043 -0.049257
2.070000 0.236323 0.877334 0.059247 -0.050376
2.080000 0.243304 0.893475 0.062561 -0.051481
2.090000 0.250433 0.909654 0.066455 -0.052541
2.100000 0.257697 0.925882 0.070650 -0.053271
2.110000 0.265082 0.942048 0.074932 -0.053550
2.120000 0.272575 0.956989 0.079000 -0.053732
2.130000 0.280162 0.969644 0.082581 -0.053842
2.140000 0.287828 0.981707 0.086161 -0.053892
2.150000 0.295560 0.993111 0.089724 -0.053964
2.160000 0.303342 1.000110 0.098510 -0.053404
2.170000 0.311161 1.003460 0.110616 -0.051553
2.180000 0.319003 1.005273 0.122675 -0.048898
2.190000 0.326851 1.007347 0.136074 -0.045441
2.200000 0.334692 1.008120 0.149907 -0.041120
2.210000 0.342512 1.006557 0.163605 -0.036268
2.220000 0.350295 1.008106 0.175372 -0.032663
2.230000 0.358027 1.010899 0.185997 -0.034466
2.240000 0.365694 1.011661 0.196475 -0.040818
2.250000 0.373282 1.008953 0.206882 -0.047833
2.260000 0.380776 1.003459 0.217196 -0.054850
2.270000 0.388163 0.996576 0.227382 -0.061641
2.280000 0.395428 0.994368 0.238717 -0.069780
2.290000 0.402559 0.992312 0.250103 -0.077572
2.300000 0.409541 0.990146 0.261388 -0.081780
2.310000 0.416362 0.985322 0.271906 -0.085718
2.320000 0.423010 0.980083 0.282183 -0.089572
2.330000 0.429471 0.974938 0.292338 -0.093128
2.340000 0.435734 0.970064 0.303368 -0.096893
2.350000 0.441788 0.965364 0.314695 -0.100867
2.360000 0.447620 0.960979 0.325838 -0.105209
2.370000 0.453220 0.957189 0.336796 -0.109403
2.380000 0.458578 0.953956 0.347544 -0.113452
2.390000 0.463683 0.951098 0.358052 -0.116196
2.400000 0.468527 0.948388 0.368287 -0.118856
2.410000 0.473099 0.944554 0.376804 -0.121113
2.420000 0.477392 0.939490 0.383516 -0.122783
2.430000 0.481397 0.934619 0.390006 -0.124324
2.440000 0.485108 0.929959 0.396265 -0.125809
2.450000 0.488516 0.925512 0.402279 -0.127237
2.460000 0.491617 0.921277 0.408039 -0.128609
2.470000 0.494403 0.917256 0.413532 -0.129923
2.480000 0.496870 0.913448 0.418751 -0.131179
2.490000 0.499013 0.909854 0.423683 -0.132377
2.500000 0.500829 0.906160 0.428139 -0.132957
2.510000 0.502313 0.902331 0.432205 -0.133477
2.520000 0.503463 0.898499 0.435971 -0.133983
2.530000 0.504277 0.894694 0.439433 -0.134475
2.540000 0.504754 0.890940 0.442585 -0.134952
2.550000 0.504892 0.887254 0.445413 -0.135412
2.560000 0.504691 0.883608 0.447836 -0.135852
2.570000 0.504152 0.879974 0.449767 -0.136270
2.580000 0.503275 0.876377 0.451207 -0.136661
2.590000 0.502063 0.872837 0.452158 -0.137031
2.600000 0.500517 0.869367 0.452622 -0.137493
2.610000 0.498640 0.865974 0.452603 -0.137900
2.620000 0.496437 0.862673 0.452104 -0.138249
2.630000 0.493910 0.859474 0.451131 -0.138537
2.640000 0.491065 0.856387 0.449689 -0.138760
2.650000 0.487907 0.853416 0.447786 -0.138917
2.660000 0.484442 0.850562 0.445428 -0.139005
2.670000 0.480677 0.847824 0.442625 -0.139022
2.680000 0.476617 0.845200 0.439384 -0.138968
2.690000 0.472272 0.842682 0.435717 -0.138842
2.700000 0.467649 0.840262 0.431633 -0.138642
2.710000 0.462756 0.837930 0.427145 -0.138368
2.720000 0.457603 0.835675 0.422263 -0.138021
2.730000 0.452200 0.833387 0.416924 -0.137575
2.740000 0.446556 0.830869 0.410992 -0.136984
2.750000 0.440682 0.828367 0.404687 -0.136318
2.760000 0.434589 0.825866 0.398025 -0.135578
2.770000 0.428288 0.823352 0.391022 -0.134764
2.780000 0.421791 0.820811 0.383693 -0.133899
2.790000 0.415110 0.818221 0.376056 -0.133084
2.800000 0.408258 0.815558 0.368127 -0.132212
2.810000 0.401247 0.812391 0.359541 -0.131164
2.820000 0.394091 0.806056 0.347855 -0.129167
2.830000 0.386802 0.799556 0.335842 -0.127106
2.840000 0.379394 0.792896 0.323527 -0.124986
2.850000 0.371882 0.786081 0.310935 -0.122813
2.860000 0.364278 0.779118 0.298093 -0.120594
2.870000 0.356598 0.772015 0.285026 -0.118337
2.880000 0.348855 0.765060 0.272514 -0.115905
2.890000 0.341064 0.758189 0.260705 -0.113356
2.900000 0.333240 0.750968 0.248770 -0.110762
2.910000 0.325396 0.740818 0.236369 -0.107577
2.920000 0.317548 0.728170 0.223584 -0.103935
2.930000 0.309709 0.715217 0.210744 -0.100319
2.940000 0.301896 0.708026 0.198644 -0.097807
2.950000 0.294122 0.703237 0.186882 -0.095671
2.960000 0.286401 0.697721 0.175177 -0.093299
2.970000 0.278749 0.689270 0.163798 -0.090431
2.980000 0.271178 0.680668 0.152475 -0.087344
2.990000 0.263704 0.674935 0.140230 -0.083915
3.000000 0.256341 0.676600 0.125450 -0.081182
3.010000 0.249101 0.677185 0.110811 -0.078079
3.020000 0.241998 0.678591 0.096992 -0.075088
3.030000 0.235046 0.682058 0.084571 -0.071948
3.040000 0.228258 0.684400 0.072330 -0.068209
3.050000 0.221645 0.681696 0.065956 -0.064597
3.060000 0.215221 0.675997 0.063318 -0.061349
3.070000 0.208998 0.670179 0.060736 -0.056620
3.080000 0.202986 0.664431 0.058175 -0.050493
3.090000 0.197197 0.655226 0.054990 -0.044323
3.100000 0.191642 0.647020 0.051881 -0.038257
3.110000 0.186331 0.640041 0.048844 -0.032210
3.120000 0.181275 0.634147 0.046472 -0.026793
3.130000 0.176481 0.629498 0.044264 -0.024114
3.140000 0.171960 0.625869 0.042116 -0.024233
3.150000 0.167720 0.623086 0.040036 -0.024360
3.160000 0.163768 0.620908 0.037660 -0.024446
3.170000 0.160112 0.618903 0.034599 -0.024065
3.180000 0.156759 0.617288 0.031707 -0.023556
3.190000 0.153715 0.615966 0.028994 -0.023152
3.200000 0.150986 0.614996 0.026467 -0.022908
3.210000 0.148576 0.614416 0.024134 -0.023062
3.220000 0.146491 0.614789 0.023276 -0.023481
3.230000 0.144733 0.615623 0.022651 -0.023986
3.240000 0.143307 0.616905 0.022096 -0.024555
3.250000 0.142215 0.618683 0.021614 -0.025156
3.260000 0.141459 0.620909 0.021210 -0.025411
3.270000 0.141040 0.623521 0.020891 -0.025742
3.280000 0.140960 0.626560 0.020658 -0.026145
3.290000 0.141218 0.629987 0.020512 -0.026618
3.300000 0.141813 0.633777 0.020456 -0.027159
3.310000 0.142746 0.637982 0.020494 -0.027762
3.320000 0.144013 0.642671 0.020624 -0.028562
3.330000 0.145613 0.647960 0.020848 -0.029829
3.340000 0.147543 0.653944 0.021166 -0.031094
3.350000 0.149799 0.660627 0.021582 -0.032357
3.360000 0.152377 0.668007 0.022098 -0.033613
3.370000 0.155272 0.676077 0.022717 -0.034853
3.380000 0.158479 0.684828 0.023442 -0.036071
3.390000 0.161991 0.694243 0.024275 -0.037265
3.400000 0.165803 0.704303 0.025217 -0.038424
3.410000 0.169907 0.714982 0.026268 -0.039542
3.420000 0.174295 0.726252 0.027429 -0.040610
3.430000 0.178960 0.738077 0.028699 -0.041622
3.440000 0.183893 0.750536 0.030509 -0.042573
3.450000 0.189084 0.763764 0.033523 -0.043454
3.460000 0.194524 0.777451 0.036759 -0.044232
3.470000 0.200202 0.791547 0.040210 -0.044898
3.480000 0.206110 0.806003 0.043866 -0.045442
3.490000 0.212234 0.820809 0.047720 -0.046242
3.500000 0.218564 0.835761 0.051001 -0.047386
3.510000 0.225088 0.850993 0.054019 -0.048521
3.520000 0.231794 0.866604 0.057157 -0.049647
3.530000 0.238670 0.882549 0.060408 -0.050760
3.540000 0.245703 0.898785 0.063765 -0.051859
3.550000 0.252879 0.914970 0.067858 -0.052906
3.560000 0.260185 0.931234 0.072096 -0.053507
3.570000 0.267609 0.947387 0.076414 -0.053750
3.580000 0.275135 0.961579 0.080313 -0.053905
3.590000 0.282750 0.974109 0.083905 -0.053996
3.600000 0.290440 0.986022 0.087489 -0.054023
3.610000 0.298191 0.997249 0.091050 -0.054194
3.620000 0.305987 1.002425 0.102055 -0.053079
3.630000 0.313815 1.005365 0.114172 -0.050994
3.640000 0.321661 1.006736 0.126230 -0.048094
3.650000 0.329508 1.009056 0.140142 -0.044395
3.660000 0.337344 1.009201 0.153956 -0.039898
3.670000 0.345153 1.007002 0.167626 -0.034882
3.680000 0.352920 1.010307 0.178608 -0.031926
3.690000 0.360632 1.012586 0.189201 -0.035929
3.700000 0.368274 1.012751 0.199633 -0.042509
3.710000 0.375832 1.008834 0.210033 -0.049687
3.720000 0.383291 1.002860 0.220300 -0.056526
3.730000 0.390638 0.996643 0.230673 -0.063601
3.740000 0.397859 0.994945 0.242137 -0.072048
3.750000 0.404941 0.992768 0.253486 -0.078660
3.760000 0.411870 0.990261 0.264652 -0.082864
3.770000 0.418634 0.984814 0.274988 -0.086736
3.780000 0.425220 0.979547 0.285221 -0.090507
3.790000 0.431615 0.974337 0.295324 -0.094083
3.800000 0.437809 0.969531 0.306713 -0.097932
3.810000 0.443788 0.964849 0.317976 -0.102054
3.820000 0.449543 0.960579 0.329056 -0.106359
3.830000 0.455063 0.956895 0.339942 -0.110515
3.840000 0.460336 0.953725 0.350610 -0.114236
3.850000 0.465353 0.950870 0.361028 -0.116918
3.860000 0.470106 0.948154 0.371167 -0.119567
3.870000 0.474585 0.943589 0.378764 -0.121599
3.880000 0.478781 0.938535 0.385400 -0.123194
3.890000 0.482688 0.933691 0.391811 -0.124719
3.900000 0.486296 0.929060 0.397986 -0.126188
3.910000 0.489601 0.924643 0.403915 -0.127600
3.920000 0.492596 0.920441 0.409584 -0.128955
3.930000 0.495275 0.916454 0.414985 -0.130252
3.940000 0.497632 0.912683 0.420108 -0.131490
3.950000 0.499665 0.909097 0.424940 -0.132543
3.960000 0.501369 0.905298 0.429225 -0.133078
3.970000 0.502740 0.901452 0.433191 -0.133592
3.980000 0.503777 0.897612 0.436854 -0.134094
3.990000 0.504477 0.893808 0.440212 -0.134581
4.000000 0.504839 0.890062 0.443259 -0.135052
4.010000 0.504862 0.886376 0.445955 -0.135505
4.020000 0.504546 0.882717 0.448213 -0.135939
4.030000 0.503893 0.879079 0.449979 -0.136348
4.040000 0.502902 0.875485 0.451255 -0.136728
4.050000 0.501577 0.871954 0.452043 -0.137121
4.060000 0.499918 0.868496 0.452345 -0.137565
4.070000 0.497931 0.865120 0.452165 -0.137953
4.080000 0.495617 0.861840 0.451507 -0.138283
4.090000 0.492982 0.858667 0.450377 -0.138549
4.100000 0.490031 0.855606 0.448782 -0.138751
4.110000 0.486768 0.852663 0.446727 -0.138885
4.120000 0.483200 0.849836 0.444220 -0.138950
4.130000 0.479334 0.847126 0.441271 -0.138944
4.140000 0.475178 0.844526 0.437889 -0.138866
4.150000 0.470737 0.842031 0.434082 -0.138715
4.160000 0.466022 0.839631 0.429864 -0.138491
4.170000 0.461040 0.837316 0.425245 -0.138193
4.180000 0.455801 0.835072 0.420236 -0.137820
4.190000 0.450315 0.832647 0.414658 -0.137314
4.200000 0.444592 0.830126 0.408602 -0.136697
4.210000 0.438642 0.827616 0.402178 -0.136008
4.220000 0.432478 0.825103 0.395403 -0.135242
4.230000 0.426109 0.822573 0.388291 -0.134407
4.240000 0.419549 0.820008 0.380860 -0.133574
4.250000 0.412808 0.817385 0.373126 -0.132742
4.260000 0.405901 0.814686 0.365107 -0.131852
4.270000 0.398839 0.810190 0.355248 -0.130410
4.280000 0.391636 0.803796 0.343455 -0.128393
4.290000 0.384306 0.797238 0.331344 -0.126313
4.300000 0.376861 0.790523 0.318939 -0.124176
4.310000 0.369316 0.783655 0.306266 -0.121990
4.320000 0.361685 0.776642 0.293351 -0.119759
