# time[s], AoA[rad], cl[-], cd[-], cm[-]
0.000000 0.304604 0.720070 0.188811 -0.077785
0.010000 0.296766 0.711278 0.173991 -0.073202
0.020000 0.289035 0.699800 0.159728 -0.067997
0.030000 0.281494 0.688680 0.145814 -0.062943
0.040000 0.274159 0.691231 0.128089 -0.055292
0.050000 0.267074 0.695379 0.110676 -0.047644
0.060000 0.260340 0.702837 0.095146 -0.039995
0.070000 0.254023 0.713473 0.081632 -0.032407
0.080000 0.248159 0.724757 0.069089 -0.025320
0.090000 0.242775 0.730338 0.066001 -0.025167
0.100000 0.237782 0.736053 0.063634 -0.025377
0.110000 0.232966 0.741889 0.061351 -0.025448
0.120000 0.228131 0.747055 0.058990 -0.025275
0.130000 0.223163 0.747839 0.055954 -0.024129
0.140000 0.218048 0.747014 0.052828 -0.022961
0.150000 0.212846 0.744889 0.049661 -0.021835
0.160000 0.207633 0.741382 0.047272 -0.021343
0.170000 0.202448 0.737056 0.044895 -0.020876
0.180000 0.197271 0.731955 0.042522 -0.020368
0.190000 0.192052 0.725648 0.039611 -0.019490
0.200000 0.186740 0.717458 0.035532 -0.017922
0.210000 0.181308 0.707732 0.031362 -0.016365
0.220000 0.175772 0.696788 0.027399 -0.015046
0.230000 0.170165 0.686104 0.026274 -0.015715
0.240000 0.164508 0.675321 0.025140 -0.016451
0.250000 0.158854 0.664594 0.024006 -0.017303
0.260000 0.153350 0.654423 0.022902 -0.018423
0.270000 0.148226 0.645622 0.021875 -0.019933
0.280000 0.143733 0.639087 0.020973 -0.021873
0.290000 0.140065 0.635298 0.020111 -0.023869
0.300000 0.137337 0.634452 0.019298 -0.025751
0.310000 0.135597 0.636878 0.018779 -0.027874
0.320000 0.134851 0.642682 0.018557 -0.030088
0.330000 0.135057 0.651723 0.018619 -0.032307
0.340000 0.136109 0.663559 0.018932 -0.034413
0.350000 0.137846 0.677468 0.019449 -0.036254
0.360000 0.140067 0.692544 0.020111 -0.037658
0.370000 0.142566 0.707705 0.020740 -0.038267
0.380000 0.145171 0.721987 0.021262 -0.038079
0.390000 0.147766 0.734939 0.021782 -0.037553
0.400000 0.150297 0.746442 0.022290 -0.036871
0.410000 0.152745 0.756562 0.022781 -0.036166
0.420000 0.155121 0.765474 0.023257 -0.035508
0.430000 0.157451 0.773419 0.023725 -0.034922
0.440000 0.159768 0.780636 0.024189 -0.034394
0.450000 0.162097 0.787309 0.024656 -0.033907
0.460000 0.164456 0.793578 0.025129 -0.033453
0.470000 0.166869 0.799581 0.025613 -0.033051
0.480000 0.169365 0.805476 0.026114 -0.032730
0.490000 0.171985 0.811440 0.026639 -0.032504
0.500000 0.174775 0.817663 0.027198 -0.032382
0.510000 0.177789 0.824627 0.028660 -0.032922
0.520000 0.181081 0.832844 0.031187 -0.034203
0.530000 0.184699 0.842458 0.033965 -0.035625
0.540000 0.188693 0.853601 0.037032 -0.037166
0.550000 0.193111 0.866391 0.040423 -0.038828
0.560000 0.197981 0.880192 0.042848 -0.039799
0.570000 0.203316 0.894869 0.045293 -0.040577
0.580000 0.209098 0.910281 0.047943 -0.041217
0.590000 0.215270 0.925973 0.051130 -0.041903
0.600000 0.221743 0.941346 0.055086 -0.042777
0.610000 0.228387 0.956108 0.059147 -0.043383
0.620000 0.235066 0.965228 0.062347 -0.042414
0.630000 0.241674 0.970526 0.065479 -0.041160
0.640000 0.248138 0.971964 0.069044 -0.040123
0.650000 0.254439 0.963224 0.082523 -0.046437
0.660000 0.260475 0.949791 0.095433 -0.052356
0.670000 0.266013 0.933907 0.108068 -0.057232
0.680000 0.270883 0.917311 0.120038 -0.061036
0.690000 0.275058 0.899463 0.130299 -0.064251
0.700000 0.278650 0.881126 0.139128 -0.067102
0.710000 0.281817 0.864307 0.146411 -0.069476
0.720000 0.284705 0.851927 0.151740 -0.071002
0.730000 0.287497 0.840953 0.156889 -0.072702
0.740000 0.290434 0.831737 0.162309 -0.074753
0.750000 0.293774 0.824596 0.168471 -0.077273
0.760000 0.297730 0.819713 0.175769 -0.080327
0.770000 0.302448 0.815098 0.184708 -0.083467
0.780000 0.308016 0.811519 0.195307 -0.086979
0.790000 0.314450 0.809402 0.207603 -0.090997
0.800000 0.321671 0.817830 0.222580 -0.097438
0.810000 0.329524 0.828899 0.238869 -0.104301
0.820000 0.337834 0.837149 0.255462 -0.109385
0.830000 0.346414 0.844345 0.272372 -0.113813
0.840000 0.355048 0.852233 0.291017 -0.118198
0.850000 0.363522 0.860177 0.310022 -0.122412
0.860000 0.371671 0.867649 0.328296 -0.126380
0.870000 0.379375 0.874488 0.345574 -0.130069
0.880000 0.386520 0.880000 0.361106 -0.133198
0.890000 0.392995 0.880552 0.371642 -0.134264
0.900000 0.398698 0.879995 0.380921 -0.135145
0.910000 0.403537 0.878498 0.388795 -0.135830
0.920000 0.407463 0.876249 0.395184 -0.136319
0.930000 0.410480 0.873442 0.400093 -0.136638
0.940000 0.412636 0.870261 0.403601 -0.136814
0.950000 0.414038 0.866889 0.405883 -0.136883
0.960000 0.414869 0.863505 0.407234 -0.136899
0.970000 0.415361 0.860278 0.408036 -0.136925
0.980000 0.415762 0.857340 0.408688 -0.137016
0.990000 0.416304 0.854788 0.409571 -0.137213
1.000000 0.417202 0.852680 0.411031 -0.137551
1.010000 0.418639 0.851039 0.413370 -0.138055
1.020000 0.420744 0.849822 0.416785 -0.138735
1.030000 0.423538 0.848651 0.421100 -0.139631
1.040000 0.426927 0.847581 0.426333 -0.140638
1.050000 0.430735 0.846469 0.432212 -0.141694
1.060000 0.434741 0.845197 0.438397 -0.142735
1.070000 0.438697 0.843693 0.444506 -0.143698
1.080000 0.442337 0.841927 0.450127 -0.144516
1.090000 0.445396 0.839918 0.454850 -0.145129
1.100000 0.447637 0.837725 0.458311 -0.145487
1.110000 0.448896 0.835432 0.460255 -0.145564
1.120000 0.449101 0.833136 0.460571 -0.145364
1.130000 0.448269 0.830922 0.459287 -0.144912
1.140000 0.446482 0.828856 0.456527 -0.144241
1.150000 0.443846 0.826976 0.452458 -0.143383
1.160000 0.440468 0.825301 0.447241 -0.142360
1.170000 0.436446 0.823829 0.441031 -0.141195
1.180000 0.431892 0.822555 0.433999 -0.139910
1.190000 0.426938 0.821474 0.426349 -0.138544
1.200000 0.421735 0.820586 0.418315 -0.137137
1.210000 0.416442 0.819434 0.409794 -0.135843
1.220000 0.411214 0.818358 0.401288 -0.134623
1.230000 0.406191 0.817511 0.393114 -0.133476
1.240000 0.401485 0.816928 0.385456 -0.132425
1.250000 0.397170 0.816631 0.378434 -0.131479
1.260000 0.393266 0.816613 0.372083 -0.130631
1.270000 0.389755 0.816843 0.366370 -0.129864
1.280000 0.386590 0.817279 0.361219 -0.129159
1.290000 0.383685 0.816375 0.355240 -0.127887
1.300000 0.380899 0.814791 0.348992 -0.126383
1.310000 0.378048 0.812850 0.342599 -0.124796
1.320000 0.374927 0.810282 0.335599 -0.123008
1.330000 0.371344 0.806825 0.327563 -0.120923
1.340000 0.367143 0.802254 0.318142 -0.118469
1.350000 0.362214 0.796397 0.307088 -0.115600
1.360000 0.356507 0.789157 0.294288 -0.112307
1.370000 0.350053 0.780552 0.279815 -0.108631
1.380000 0.342966 0.771525 0.265577 -0.104686
1.390000 0.335420 0.761831 0.250705 -0.100559
1.400000 0.327641 0.748394 0.234962 -0.095066
1.410000 0.319881 0.731372 0.218868 -0.088416
1.420000 0.312362 0.716792 0.203578 -0.082593
1.430000 0.305200 0.710579 0.189946 -0.078715
1.440000 0.298460 0.705139 0.177117 -0.075067
1.450000 0.292202 0.697122 0.165570 -0.070972
1.460000 0.286448 0.689828 0.154955 -0.067226
1.470000 0.281181 0.683241 0.145237 -0.063812
1.480000 0.276355 0.686449 0.133487 -0.058823
1.490000 0.271967 0.690513 0.122702 -0.054185
1.500000 0.268001 0.695028 0.112954 -0.049992
1.510000 0.264397 0.699915 0.104094 -0.046154
1.520000 0.261100 0.707139 0.096771 -0.042353
1.530000 0.258049 0.715340 0.090244 -0.038705
1.540000 0.255174 0.723875 0.084094 -0.035217
1.550000 0.252393 0.732688 0.078146 -0.031791
1.560000 0.249626 0.741733 0.072228 -0.028322
1.570000 0.246801 0.749656 0.067909 -0.026040
1.580000 0.243851 0.755230 0.066511 -0.025972
1.590000 0.240681 0.760295 0.065008 -0.025879
1.600000 0.237198 0.764758 0.063357 -0.025739
1.610000 0.233372 0.768637 0.061544 -0.025562
1.620000 0.229209 0.771996 0.059571 -0.025366
1.630000 0.224726 0.771561 0.056909 -0.024364
1.640000 0.219947 0.769119 0.053989 -0.023233
1.650000 0.214909 0.765198 0.050909 -0.022123
1.660000 0.209727 0.759969 0.048232 -0.021455
1.670000 0.204580 0.754092 0.045872 -0.021231
1.680000 0.199615 0.748231 0.043597 -0.021247
1.690000 0.194949 0.742810 0.041458 -0.021468
1.700000 0.190696 0.737609 0.038569 -0.021321
1.710000 0.186987 0.733238 0.035722 -0.021285
1.720000 0.183964 0.730426 0.033401 -0.021647
1.730000 0.181755 0.729761 0.031705 -0.022414
1.740000 0.180441 0.731642 0.030696 -0.023523
1.750000 0.180017 0.736124 0.030370 -0.024825
1.760000 0.180373 0.742846 0.030644 -0.026153
1.770000 0.181333 0.751181 0.031381 -0.027341
1.780000 0.182728 0.760521 0.032452 -0.028330
1.790000 0.184429 0.770414 0.033758 -0.029147
1.800000 0.186339 0.780524 0.035225 -0.029833
1.810000 0.188366 0.790543 0.036781 -0.030403
1.820000 0.190416 0.800152 0.038354 -0.030823
1.830000 0.192399 0.809059 0.039877 -0.031078
1.840000 0.194248 0.816966 0.041137 -0.031080
1.850000 0.195922 0.823581 0.041904 -0.030765
1.860000 0.197391 0.828956 0.042577 -0.030434
1.870000 0.198650 0.833176 0.043154 -0.030119
1.880000 0.199725 0.836442 0.043647 -0.029852
1.890000 0.200676 0.839053 0.044083 -0.029678
1.900000 0.201581 0.841353 0.044498 -0.029653
1.910000 0.202538 0.843729 0.044937 -0.029819
1.920000 0.203672 0.846633 0.045456 -0.030214
1.930000 0.205124 0.850539 0.046122 -0.030858
1.940000 0.207027 0.855855 0.046994 -0.031731
1.950000 0.209481 0.862844 0.048119 -0.032767
1.960000 0.212548 0.871600 0.049525 -0.033873
1.970000 0.216255 0.881823 0.051732 -0.035346
1.980000 0.220599 0.893463 0.054387 -0.036860
1.990000 0.225562 0.906338 0.057420 -0.038308
2.000000 0.231097 0.918328 0.060465 -0.039131
2.010000 0.237094 0.927141 0.063308 -0.039038
2.020000 0.243393 0.933440 0.066294 -0.038552
2.030000 0.249832 0.934624 0.072668 -0.040239
2.040000 0.256247 0.926811 0.086391 -0.047281
2.050000 0.262488 0.914131 0.099739 -0.053936
2.060000 0.268459 0.900738 0.114078 -0.059623
2.070000 0.274125 0.885877 0.128006 -0.064866
2.080000 0.279475 0.869521 0.141156 -0.069833
2.090000 0.284491 0.858321 0.151345 -0.073099
2.100000 0.289191 0.850012 0.160015 -0.075596
2.110000 0.293620 0.842457 0.168186 -0.078048
2.120000 0.297831 0.835692 0.175955 -0.080462
2.130000 0.301880 0.828032 0.183627 -0.082475
2.140000 0.305806 0.820627 0.191100 -0.084419
2.150000 0.309660 0.813767 0.198436 -0.086355
2.160000 0.313497 0.807472 0.205739 -0.088349
2.170000 0.317362 0.806258 0.213643 -0.091366
2.180000 0.321323 0.807322 0.221859 -0.094733
2.190000 0.325491 0.809992 0.230504 -0.098362
2.200000 0.330016 0.814501 0.239890 -0.102403
2.210000 0.335067 0.818402 0.250008 -0.105838
2.220000 0.340799 0.822515 0.261307 -0.109150
2.230000 0.347312 0.827946 0.274143 -0.112872
2.240000 0.354634 0.835305 0.290088 -0.116987
2.250000 0.362719 0.844124 0.308219 -0.121447
2.260000 0.371401 0.853838 0.327693 -0.126144
2.270000 0.380424 0.863951 0.347928 -0.130916
2.280000 0.389471 0.871293 0.365907 -0.134456
2.290000 0.398178 0.874022 0.380075 -0.136204
2.300000 0.406154 0.875211 0.393054 -0.137653
2.310000 0.413083 0.874960 0.404328 -0.138767
2.320000 0.418818 0.873515 0.413661 -0.139587
2.330000 0.423406 0.870899 0.420895 -0.140260
2.340000 0.427033 0.867626 0.426495 -0.140830
2.350000 0.429941 0.864146 0.430986 -0.141331
2.360000 0.432358 0.860650 0.434717 -0.141803
2.370000 0.434481 0.857257 0.437996 -0.142268
2.380000 0.436504 0.854046 0.441119 -0.142758
2.390000 0.438596 0.851049 0.444351 -0.143309
2.400000 0.440873 0.848262 0.447866 -0.143934
2.410000 0.443389 0.845650 0.451751 -0.144631
2.420000 0.446151 0.843166 0.456016 -0.145392
2.430000 0.449132 0.840759 0.460619 -0.146203
2.440000 0.452294 0.838384 0.465501 -0.147051
2.450000 0.455612 0.836234 0.470779 -0.148010
2.460000 0.459083 0.843476 0.482711 -0.152224
2.470000 0.462694 0.851678 0.495126 -0.156609
2.480000 0.466403 0.860654 0.507876 -0.161101
2.490000 0.470124 0.870115 0.520668 -0.165587
2.500000 0.473727 0.879655 0.533053 -0.169898
2.510000 0.477036 0.888762 0.544430 -0.173811
2.520000 0.479850 0.896851 0.554102 -0.177076
2.530000 0.481952 0.903305 0.561330 -0.179430
2.540000 0.483135 0.907505 0.565396 -0.180626
2.550000 0.483225 0.908895 0.565703 -0.180463
2.560000 0.482114 0.907055 0.561886 -0.178829
2.570000 0.479793 0.901771 0.553907 -0.175735
2.580000 0.476359 0.893087 0.542100 -0.171329
2.590000 0.471995 0.881286 0.527099 -0.165855
2.600000 0.466951 0.866864 0.509758 -0.159626
2.610000 0.461510 0.850484 0.491053 -0.152993
2.620000 0.455940 0.832857 0.471905 -0.146276
2.630000 0.450411 0.828868 0.462595 -0.144506
2.640000 0.445008 0.826449 0.454251 -0.143151
2.650000 0.439784 0.824491 0.446185 -0.141839
2.660000 0.434778 0.822949 0.438455 -0.140579
2.670000 0.430004 0.821775 0.431084 -0.139371
2.680000 0.425440 0.820921 0.424036 -0.138211
2.690000 0.421024 0.820333 0.417216 -0.137073
2.700000 0.416667 0.819507 0.410160 -0.136030
2.710000 0.412260 0.818743 0.402990 -0.134959
2.720000 0.407676 0.817997 0.395530 -0.133810
2.730000 0.402786 0.817186 0.387573 -0.132550
2.740000 0.397482 0.816230 0.378943 -0.131154
2.750000 0.391674 0.815052 0.369493 -0.129605
2.760000 0.385292 0.813270 0.358845 -0.127762
2.770000 0.378299 0.806365 0.343163 -0.123804
2.780000 0.370699 0.798134 0.326117 -0.119525
2.790000 0.362527 0.788608 0.307790 -0.114954
2.800000 0.353856 0.777869 0.288342 -0.110142
2.810000 0.344774 0.766602 0.269141 -0.105172
2.820000 0.335402 0.755166 0.250669 -0.100114
2.830000 0.325931 0.738599 0.231416 -0.093177
2.840000 0.316616 0.718470 0.212096 -0.085215
2.850000 0.307669 0.707844 0.194646 -0.079598
2.860000 0.299235 0.701261 0.178591 -0.075023
2.870000 0.291451 0.691798 0.164184 -0.070027
2.880000 0.284414 0.682981 0.151202 -0.065489
2.890000 0.278163 0.680933 0.137931 -0.060339
2.900000 0.272671 0.685491 0.124433 -0.054585
2.910000 0.267783 0.690504 0.112419 -0.049401
2.920000 0.263227 0.696190 0.101320 -0.044440
2.930000 0.258758 0.705614 0.091762 -0.038975
2.940000 0.254240 0.715683 0.082096 -0.033338
2.950000 0.249579 0.726341 0.072126 -0.027440
2.960000 0.244705 0.733549 0.066916 -0.025164
2.970000 0.239587 0.738486 0.064489 -0.025036
2.980000 0.234217 0.743053 0.061944 -0.024867
2.990000 0.228603 0.747226 0.059278 -0.024652
3.000000 0.222755 0.746001 0.055704 -0.023257
3.010000 0.216704 0.743056 0.052006 -0.021833
3.020000 0.210502 0.738454 0.048587 -0.020710
3.030000 0.204222 0.732370 0.045709 -0.020112
3.040000 0.197958 0.725436 0.042837 -0.019658
3.050000 0.191814 0.717656 0.039427 -0.019023
3.060000 0.185918 0.708891 0.034901 -0.017874
3.070000 0.180393 0.700110 0.030659 -0.017042
3.080000 0.175308 0.692014 0.027306 -0.016847
3.090000 0.170701 0.685736 0.026381 -0.018232
3.100000 0.166592 0.680992 0.025558 -0.019590
3.110000 0.162993 0.677771 0.024836 -0.020918
3.120000 0.159880 0.675957 0.024212 -0.022189
3.130000 0.157203 0.675330 0.023675 -0.023346
3.140000 0.154896 0.675631 0.023212 -0.024377
3.150000 0.152896 0.676603 0.022811 -0.025293
3.160000 0.151165 0.678112 0.022464 -0.026125
3.170000 0.149720 0.680228 0.022174 -0.026939
3.180000 0.148618 0.683184 0.021953 -0.027756
3.190000 0.147902 0.687136 0.021810 -0.028605
3.200000 0.147553 0.691979 0.021740 -0.029424
3.210000 0.147515 0.697455 0.021732 -0.030111
3.220000 0.147727 0.703294 0.021774 -0.030605
3.230000 0.148126 0.709234 0.021854 -0.030888
3.240000 0.148640 0.714992 0.021958 -0.031003
3.250000 0.149195 0.720292 0.022069 -0.030999
3.260000 0.149734 0.724947 0.022177 -0.030960
3.270000 0.150243 0.728969 0.022279 -0.030929
3.280000 0.150757 0.732588 0.022382 -0.030968
3.290000 0.151340 0.736123 0.022499 -0.031124
3.300000 0.152055 0.739868 0.022642 -0.031408
3.310000 0.152967 0.744088 0.022825 -0.031820
3.320000 0.154144 0.749051 0.023061 -0.032337
3.330000 0.155661 0.755004 0.023365 -0.032937
3.340000 0.157572 0.762098 0.023749 -0.033544
3.350000 0.159908 0.770357 0.024217 -0.034075
3.360000 0.162678 0.779703 0.024773 -0.034483
3.370000 0.165882 0.790026 0.025415 -0.034751
3.380000 0.169521 0.801224 0.026145 -0.034880
3.390000 0.173583 0.813150 0.026959 -0.034878
3.400000 0.178031 0.825905 0.028845 -0.035372
3.410000 0.182808 0.839825 0.032513 -0.036808
3.420000 0.187856 0.854664 0.036389 -0.038163
3.430000 0.193128 0.870186 0.040437 -0.039428
3.440000 0.198596 0.885461 0.043130 -0.039730
3.450000 0.204240 0.900323 0.045717 -0.039832
3.460000 0.210034 0.914729 0.048373 -0.039854
3.470000 0.215942 0.928371 0.051540 -0.040135
3.480000 0.221915 0.941047 0.055191 -0.040671
3.490000 0.227907 0.952812 0.058853 -0.041104
3.500000 0.233901 0.959912 0.061795 -0.040384
3.510000 0.239893 0.963671 0.064635 -0.039458
3.520000 0.245865 0.964617 0.067465 -0.038415
3.530000 0.251799 0.958490 0.076875 -0.042220
3.540000 0.257579 0.946361 0.089240 -0.048334
3.550000 0.263098 0.930417 0.101044 -0.054038
3.560000 0.268398 0.914794 0.113929 -0.059053
3.570000 0.273578 0.898296 0.126662 -0.064029
3.580000 0.278721 0.880993 0.139303 -0.069132
3.590000 0.283895 0.868127 0.150244 -0.073250
3.600000 0.289213 0.860245 0.160055 -0.076619
3.610000 0.294765 0.854132 0.170299 -0.080235
3.620000 0.300571 0.848585 0.181136 -0.083796
3.630000 0.306651 0.842307 0.192708 -0.087088
3.640000 0.313015 0.836651 0.204821 -0.090558
3.650000 0.319616 0.838978 0.218317 -0.095802
3.660000 0.326392 0.844562 0.232372 -0.101520
3.670000 0.333349 0.850551 0.246622 -0.106830
3.680000 0.340554 0.853861 0.260823 -0.110579
3.690000 0.348090 0.857950 0.275678 -0.114551
3.700000 0.356025 0.863676 0.293207 -0.118801
3.710000 0.364421 0.870514 0.312037 -0.123320
3.720000 0.373334 0.878339 0.332028 -0.128126
3.730000 0.382743 0.886991 0.353129 -0.133162
3.740000 0.392518 0.891434 0.370866 -0.136282
3.750000 0.402447 0.893023 0.387021 -0.138440
3.760000 0.412287 0.893395 0.403034 -0.140468
3.770000 0.421841 0.892438 0.418479 -0.142378
3.780000 0.430972 0.889494 0.432577 -0.144347
3.790000 0.439550 0.885525 0.445824 -0.146166
3.800000 0.447428 0.880724 0.457988 -0.147806
3.810000 0.454489 0.875309 0.468891 -0.149241
3.820000 0.460670 0.883442 0.488167 -0.155346
3.830000 0.465998 0.892860 0.506482 -0.161445
3.840000 0.470603 0.901239 0.522312 -0.166743
3.850000 0.474661 0.908961 0.536264 -0.171462
3.860000 0.478344 0.916383 0.548926 -0.175798
3.870000 0.481806 0.923819 0.560827 -0.179919
3.880000 0.485177 0.931530 0.572415 -0.183972
3.890000 0.488556 0.939702 0.584031 -0.188066
3.900000 0.492006 0.947641 0.595029 -0.191513
3.910000 0.495562 0.956046 0.606325 -0.195040
3.920000 0.499222 0.964915 0.617952 -0.198673
3.930000 0.502952 0.974142 0.629803 -0.202372
3.940000 0.506698 0.983585 0.641706 -0.206075
3.950000 0.510403 0.993092 0.653477 -0.209717
3.960000 0.513995 1.002484 0.664887 -0.213223
3.970000 0.517368 1.011513 0.675603 -0.216478
3.980000 0.520381 1.019856 0.685177 -0.219326
3.990000 0.522879 1.027158 0.693115 -0.221603
4.000000 0.524719 1.032415 0.698196 -0.222847
4.010000 0.525774 1.035944 0.700829 -0.223281
4.020000 0.525929 1.037951 0.701217 -0.223039
4.030000 0.525088 1.038288 0.699117 -0.222066
4.040000 0.523193 1.036614 0.694109 -0.220223
4.050000 0.520235 1.031570 0.684713 -0.216916
4.060000 0.516254 1.023874 0.672065 -0.212628
4.070000 0.511332 1.013572 0.656428 -0.207463
4.080000 0.505600 1.000826 0.638217 -0.201567
4.090000 0.499236 0.985926 0.617998 -0.195129
4.100000 0.492447 0.969266 0.596429 -0.188359
4.110000 0.485440 0.950486 0.573320 -0.180723
4.120000 0.478401 0.929684 0.549122 -0.172274
4.130000 0.471478 0.908067 0.525323 -0.164022
4.140000 0.464768 0.886001 0.502254 -0.156061
4.150000 0.458315 0.863736 0.480071 -0.148425
4.160000 0.452112 0.850812 0.465221 -0.144324
4.170000 0.446097 0.845772 0.455932 -0.142871
4.180000 0.440181 0.841457 0.446799 -0.141399
4.190000 0.434274 0.837759 0.437676 -0.139892
4.200000 0.428264 0.834570 0.428397 -0.138321
4.210000 0.422032 0.831782 0.418774 -0.136653
4.220000 0.415468 0.828719 0.408210 -0.134989
4.230000 0.408480 0.825619 0.396838 -0.133227
4.240000 0.400996 0.822520 0.384661 -0.131319
4.250000 0.393001 0.819344 0.371650 -0.129266
4.260000 0.384526 0.815173 0.357126 -0.126734
4.270000 0.375607 0.805198 0.337125 -0.121809
4.280000 0.366297 0.794127 0.316244 -0.116695
4.290000 0.356688 0.782089 0.294695 -0.111451
4.300000 0.346909 0.769557 0.273349 -0.106166
4.310000 0.337090 0.757513 0.253997 -0.100941
4.320000 0.327372 0.741812 0.234405 -0.094409
