# time[s], AoA[rad], cl[-], cd[-], cm[-]
0.000000 0.304604 0.720082 0.188830 -0.077796
0.010000 0.296761 0.715089 0.178785 -0.077338
0.020000 0.288979 0.707491 0.168683 -0.076052
0.030000 0.281271 0.699197 0.158428 -0.074287
0.040000 0.273648 0.690813 0.148043 -0.072175
0.050000 0.266111 0.689088 0.135412 -0.070430
0.060000 0.258670 0.690444 0.121595 -0.068600
0.070000 0.251366 0.691123 0.107858 -0.066295
0.080000 0.244243 0.693355 0.095202 -0.063759
0.090000 0.237322 0.696920 0.083665 -0.058849
0.100000 0.230653 0.700323 0.072546 -0.052951
0.110000 0.224336 0.700216 0.066132 -0.047376
0.120000 0.218440 0.698562 0.063778 -0.042335
0.130000 0.212966 0.698092 0.061501 -0.036898
0.140000 0.207892 0.699124 0.059283 -0.031828
0.150000 0.203199 0.700662 0.057012 -0.027047
0.160000 0.198873 0.700928 0.054317 -0.025731
0.170000 0.194841 0.701679 0.051636 -0.025784
0.180000 0.190974 0.702696 0.048960 -0.025779
0.190000 0.187213 0.703869 0.046388 -0.025729
0.200000 0.183540 0.704970 0.044320 -0.025603
0.210000 0.179934 0.705659 0.042278 -0.025004
0.220000 0.176411 0.705467 0.040279 -0.024403
0.230000 0.172986 0.704403 0.038317 -0.023833
0.240000 0.169627 0.702421 0.036264 -0.023367
0.250000 0.166288 0.699008 0.033150 -0.023036
0.260000 0.162922 0.694828 0.030035 -0.022679
0.270000 0.159510 0.689938 0.026912 -0.022286
0.280000 0.156065 0.684455 0.023787 -0.021909
0.290000 0.152615 0.679167 0.022074 -0.021517
0.300000 0.149220 0.674024 0.021243 -0.020997
0.310000 0.145995 0.669093 0.020455 -0.020676
0.320000 0.143072 0.664799 0.019733 -0.020619
0.330000 0.140567 0.661621 0.019092 -0.020835
0.340000 0.138594 0.660270 0.018542 -0.022156
0.350000 0.137258 0.661496 0.018085 -0.023986
0.360000 0.136682 0.665533 0.017749 -0.025930
0.370000 0.136979 0.671863 0.017590 -0.027927
0.380000 0.138180 0.679708 0.017658 -0.029908
0.390000 0.140207 0.688733 0.017962 -0.031761
0.400000 0.142950 0.698674 0.018495 -0.033358
0.410000 0.146297 0.709164 0.019250 -0.034662
0.420000 0.150108 0.719787 0.020208 -0.035647
0.430000 0.154196 0.730194 0.021323 -0.036255
0.440000 0.158358 0.740145 0.022527 -0.036443
0.450000 0.162430 0.749538 0.023755 -0.036232
0.460000 0.166343 0.758413 0.024963 -0.035768
0.470000 0.170115 0.766891 0.026142 -0.035275
0.480000 0.173796 0.775093 0.027296 -0.034879
0.490000 0.177422 0.783090 0.028427 -0.034564
0.500000 0.181011 0.790914 0.029536 -0.034288
0.510000 0.184567 0.798871 0.031637 -0.033994
0.520000 0.188098 0.806879 0.033898 -0.033677
0.530000 0.191639 0.814960 0.036212 -0.033355
0.540000 0.195241 0.823162 0.038603 -0.033062
0.550000 0.198967 0.831684 0.041103 -0.033528
0.560000 0.202877 0.840870 0.043755 -0.034307
0.570000 0.207013 0.850966 0.046597 -0.035268
0.580000 0.211432 0.861845 0.048737 -0.036401
0.590000 0.216193 0.873789 0.050924 -0.037690
0.600000 0.221341 0.886779 0.053295 -0.039083
0.610000 0.226884 0.900661 0.055853 -0.040510
0.620000 0.232806 0.915023 0.058648 -0.041246
0.630000 0.239097 0.929081 0.062254 -0.041705
0.640000 0.245726 0.942692 0.066015 -0.042010
0.650000 0.252619 0.955640 0.069880 -0.042108
0.660000 0.259676 0.965584 0.073109 -0.041985
0.670000 0.266766 0.973417 0.076193 -0.042184
0.680000 0.273741 0.979712 0.079159 -0.042178
0.690000 0.280458 0.984512 0.081941 -0.041965
0.700000 0.286822 0.984102 0.090229 -0.040214
0.710000 0.292818 0.979989 0.099460 -0.037382
0.720000 0.298518 0.973435 0.108397 -0.034334
0.730000 0.304032 0.965154 0.117451 -0.031266
0.740000 0.309456 0.956739 0.127551 -0.029041
0.750000 0.314841 0.945934 0.137296 -0.033118
0.760000 0.320094 0.932445 0.146518 -0.037463
0.770000 0.325087 0.918109 0.155368 -0.041875
0.780000 0.329812 0.907681 0.162000 -0.047531
0.790000 0.334316 0.896964 0.168474 -0.052826
0.800000 0.338658 0.886367 0.174919 -0.058282
0.810000 0.342904 0.875959 0.181432 -0.063898
0.820000 0.347127 0.865102 0.188188 -0.069257
0.830000 0.351403 0.854508 0.195383 -0.071839
0.840000 0.355838 0.845362 0.203030 -0.074439
0.850000 0.360516 0.837659 0.211062 -0.077087
0.860000 0.365426 0.835269 0.220083 -0.080435
0.870000 0.370518 0.834891 0.229502 -0.083905
0.880000 0.375732 0.835036 0.238988 -0.087431
0.890000 0.380996 0.835483 0.248507 -0.091054
0.900000 0.386247 0.833249 0.257512 -0.094245
0.910000 0.391444 0.831642 0.266522 -0.097688
0.920000 0.396526 0.831009 0.275499 -0.101062
0.930000 0.401426 0.831340 0.284656 -0.104385
0.940000 0.406108 0.832817 0.294725 -0.107519
0.950000 0.410569 0.834679 0.304624 -0.109971
0.960000 0.414828 0.836539 0.314210 -0.112381
0.970000 0.418881 0.838233 0.323321 -0.114728
0.980000 0.422675 0.839712 0.331864 -0.116930
0.990000 0.426142 0.841010 0.339781 -0.118916
1.000000 0.429227 0.842105 0.346983 -0.120756
1.010000 0.431866 0.842925 0.353361 -0.122434
1.020000 0.433979 0.843493 0.358882 -0.123939
1.030000 0.435499 0.843967 0.363640 -0.125286
1.040000 0.436420 0.843282 0.366642 -0.126165
1.050000 0.436812 0.842737 0.369208 -0.126954
1.060000 0.436799 0.842384 0.371475 -0.127699
1.070000 0.436510 0.842222 0.373544 -0.128417
1.080000 0.436046 0.842277 0.375530 -0.129115
1.090000 0.435496 0.842548 0.377521 -0.129785
1.100000 0.434954 0.842922 0.379539 -0.130284
1.110000 0.434490 0.843219 0.381544 -0.130715
1.120000 0.434118 0.843341 0.383454 -0.131122
1.130000 0.433796 0.843237 0.385160 -0.131484
1.140000 0.433450 0.842891 0.386567 -0.131789
1.150000 0.432996 0.842320 0.387607 -0.132034
1.160000 0.432358 0.841556 0.388234 -0.132219
1.170000 0.431464 0.840620 0.388395 -0.132341
1.180000 0.430251 0.839532 0.388035 -0.132396
1.190000 0.428672 0.838317 0.387125 -0.132382
1.200000 0.426704 0.837004 0.385665 -0.132302
1.210000 0.424354 0.835613 0.383667 -0.132159
1.220000 0.421643 0.834137 0.381131 -0.131951
1.230000 0.418598 0.832553 0.378039 -0.131677
1.240000 0.415221 0.830841 0.374372 -0.131331
1.250000 0.411493 0.828997 0.370111 -0.130905
1.260000 0.407381 0.827029 0.365247 -0.130391
1.270000 0.402867 0.824428 0.359320 -0.129642
1.280000 0.397957 0.819852 0.351081 -0.128265
1.290000 0.392686 0.815146 0.342291 -0.126788
1.300000 0.387116 0.810444 0.333151 -0.125247
1.310000 0.381335 0.805821 0.323867 -0.123531
1.320000 0.375449 0.801223 0.314602 -0.121645
1.330000 0.369560 0.796606 0.305456 -0.119755
1.340000 0.363740 0.791969 0.296464 -0.117866
1.350000 0.358034 0.787282 0.287609 -0.115976
1.360000 0.352463 0.782490 0.278838 -0.114078
1.370000 0.347037 0.777932 0.271016 -0.112288
1.380000 0.341751 0.773205 0.263244 -0.110486
1.390000 0.336583 0.768191 0.255332 -0.108644
1.400000 0.331491 0.762856 0.247224 -0.106752
1.410000 0.326433 0.755386 0.238656 -0.104446
1.420000 0.321376 0.746125 0.229628 -0.101664
1.430000 0.316290 0.736566 0.220371 -0.098847
1.440000 0.311143 0.726707 0.210883 -0.095995
1.450000 0.305892 0.720367 0.201646 -0.093750
1.460000 0.300500 0.716412 0.192574 -0.091301
1.470000 0.294966 0.711922 0.183331 -0.088620
1.480000 0.289318 0.706194 0.174048 -0.085702
1.490000 0.283604 0.698266 0.164902 -0.082413
1.500000 0.277879 0.690316 0.155765 -0.079387
1.510000 0.272186 0.682785 0.146683 -0.076397
1.520000 0.266543 0.682297 0.135506 -0.074176
1.530000 0.260964 0.684089 0.123817 -0.071888
1.540000 0.255495 0.685512 0.112450 -0.069330
1.550000 0.250201 0.686554 0.101545 -0.066619
1.560000 0.245144 0.690460 0.092599 -0.064054
1.570000 0.240391 0.694090 0.084355 -0.058895
1.580000 0.236035 0.698090 0.076945 -0.053804
1.590000 0.232178 0.702195 0.070406 -0.049041
1.600000 0.228890 0.704456 0.066890 -0.044908
1.610000 0.226191 0.707114 0.065728 -0.040957
1.620000 0.224054 0.711111 0.064701 -0.037380
1.630000 0.222402 0.716173 0.063757 -0.034203
1.640000 0.221094 0.721947 0.062846 -0.031323
1.650000 0.219962 0.728125 0.061928 -0.028623
1.660000 0.218867 0.734289 0.060968 -0.027580
1.670000 0.217688 0.739954 0.059937 -0.027599
1.680000 0.216305 0.744896 0.058817 -0.027539
1.690000 0.214630 0.748719 0.057564 -0.027392
1.700000 0.212614 0.750153 0.055825 -0.027085
1.710000 0.210227 0.750827 0.053935 -0.026745
1.720000 0.207465 0.750905 0.051911 -0.026386
1.730000 0.204376 0.750657 0.049788 -0.026056
1.740000 0.201073 0.750087 0.047657 -0.025423
1.750000 0.197733 0.748887 0.046025 -0.024904
1.760000 0.194524 0.747534 0.044466 -0.024597
1.770000 0.191571 0.746488 0.043029 -0.024498
1.780000 0.188979 0.746131 0.041755 -0.024583
1.790000 0.186849 0.746793 0.040683 -0.025016
1.800000 0.185272 0.748812 0.039855 -0.025798
1.810000 0.184339 0.752534 0.039311 -0.026780
1.820000 0.184144 0.758121 0.039080 -0.027950
1.830000 0.184760 0.765436 0.039178 -0.029254
1.840000 0.186214 0.774184 0.039605 -0.030597
1.850000 0.188486 0.784057 0.040355 -0.031909
1.860000 0.191505 0.794734 0.041407 -0.033117
1.870000 0.195151 0.805840 0.042722 -0.034131
1.880000 0.199269 0.816952 0.044247 -0.034870
1.890000 0.203672 0.827641 0.045914 -0.035294
1.900000 0.208157 0.837553 0.047641 -0.035380
1.910000 0.212527 0.846450 0.049350 -0.035138
1.920000 0.216637 0.854225 0.050979 -0.034641
1.930000 0.220405 0.860863 0.052717 -0.034007
1.940000 0.223802 0.866504 0.054320 -0.033358
1.950000 0.226839 0.871432 0.055777 -0.032771
1.960000 0.229546 0.875843 0.057104 -0.032273
1.970000 0.231974 0.879935 0.058329 -0.031973
1.980000 0.234193 0.883935 0.059491 -0.031899
1.990000 0.236303 0.888084 0.060641 -0.031991
2.000000 0.238426 0.892585 0.061837 -0.032262
2.010000 0.240698 0.897579 0.063140 -0.032728
2.020000 0.243244 0.902725 0.064522 -0.033379
2.030000 0.246166 0.907481 0.065803 -0.034188
2.040000 0.249537 0.912730 0.067270 -0.035132
2.050000 0.253402 0.918445 0.068939 -0.036161
2.060000 0.257794 0.924364 0.070817 -0.036985
2.070000 0.262738 0.929864 0.072897 -0.037501
2.080000 0.268217 0.933853 0.077431 -0.037654
2.090000 0.274170 0.932980 0.086855 -0.036856
2.100000 0.280522 0.929769 0.096587 -0.035457
2.110000 0.287179 0.924328 0.106426 -0.033458
2.120000 0.294015 0.918421 0.117386 -0.033843
2.130000 0.300879 0.910537 0.128390 -0.037437
2.140000 0.307598 0.899922 0.138932 -0.041179
2.150000 0.313999 0.886926 0.148881 -0.045062
2.160000 0.319967 0.876875 0.156699 -0.049609
2.170000 0.325473 0.868015 0.163447 -0.054268
2.180000 0.330519 0.858821 0.169808 -0.059065
2.190000 0.335137 0.849544 0.175881 -0.063959
2.200000 0.339391 0.840155 0.181759 -0.068904
2.210000 0.343344 0.830346 0.187636 -0.071025
2.220000 0.347059 0.821485 0.193544 -0.073095
2.230000 0.350609 0.813794 0.199549 -0.075173
2.240000 0.354066 0.807200 0.205731 -0.077267
2.250000 0.357505 0.802830 0.212223 -0.079429
2.260000 0.361013 0.802854 0.219672 -0.082193
2.270000 0.364666 0.803641 0.227412 -0.085098
2.280000 0.368518 0.805119 0.235453 -0.088149
2.290000 0.372619 0.807198 0.243790 -0.091342
2.300000 0.377006 0.808024 0.252107 -0.094524
2.310000 0.381676 0.808533 0.260473 -0.097622
2.320000 0.386594 0.809856 0.269032 -0.100718
2.330000 0.391704 0.811825 0.277693 -0.103794
2.340000 0.396938 0.814604 0.287082 -0.106813
2.350000 0.402222 0.817836 0.297002 -0.109227
2.360000 0.407489 0.821032 0.306839 -0.111624
2.370000 0.412664 0.824066 0.316434 -0.113978
2.380000 0.417649 0.826823 0.325610 -0.116249
2.390000 0.422336 0.829263 0.334220 -0.118276
2.400000 0.426632 0.831419 0.342174 -0.120169
2.410000 0.430468 0.833286 0.349414 -0.121928
2.420000 0.433784 0.834821 0.355846 -0.123535
2.430000 0.436503 0.836014 0.361387 -0.124971
2.440000 0.438554 0.836347 0.365461 -0.126055
2.450000 0.439932 0.836032 0.368322 -0.126839
2.460000 0.440733 0.835866 0.370790 -0.127561
2.470000 0.441102 0.835876 0.373001 -0.128255
2.480000 0.441195 0.836120 0.375137 -0.128944
2.490000 0.441168 0.836661 0.377397 -0.129646
2.500000 0.441180 0.837484 0.379923 -0.130320
2.510000 0.441374 0.838425 0.382743 -0.130856
2.520000 0.441856 0.839282 0.385800 -0.131414
2.530000 0.442658 0.839971 0.389017 -0.131981
2.540000 0.443752 0.840455 0.392321 -0.132539
2.550000 0.445064 0.840706 0.395623 -0.133071
2.560000 0.446494 0.840697 0.398804 -0.133561
2.570000 0.447908 0.840421 0.401742 -0.133997
2.580000 0.449156 0.839903 0.404327 -0.134366
2.590000 0.450087 0.839191 0.406476 -0.134664
2.600000 0.450584 0.838337 0.408124 -0.134890
2.610000 0.450563 0.837368 0.409200 -0.135049
2.620000 0.449964 0.836275 0.409597 -0.135138
2.630000 0.448735 0.835015 0.409170 -0.135146
2.640000 0.446825 0.833542 0.407774 -0.135057
2.650000 0.444186 0.831839 0.405310 -0.134862
2.660000 0.440788 0.829923 0.401756 -0.134553
2.670000 0.436634 0.827836 0.397160 -0.134135
2.680000 0.431761 0.825633 0.391633 -0.133616
2.690000 0.426243 0.823390 0.385348 -0.133008
2.700000 0.420191 0.821199 0.378529 -0.132332
2.710000 0.413746 0.819151 0.371426 -0.131608
2.720000 0.407072 0.817315 0.364264 -0.130855
2.730000 0.400349 0.814135 0.355785 -0.129640
2.740000 0.393739 0.810079 0.346454 -0.128090
2.750000 0.387362 0.806433 0.337576 -0.126599
2.760000 0.381290 0.803152 0.329139 -0.125160
2.770000 0.375549 0.800134 0.321052 -0.123760
2.780000 0.370122 0.797104 0.313142 -0.122044
2.790000 0.364947 0.793732 0.305194 -0.120282
2.800000 0.359929 0.789876 0.296990 -0.118455
2.810000 0.354950 0.785423 0.288337 -0.116533
2.820000 0.349895 0.780260 0.279072 -0.114491
2.830000 0.344657 0.774847 0.270123 -0.112449
2.840000 0.339144 0.768790 0.260624 -0.110286
2.850000 0.333282 0.761991 0.250375 -0.107970
2.860000 0.327023 0.752955 0.239169 -0.105190
2.870000 0.320362 0.740225 0.226852 -0.101625
2.880000 0.313330 0.726734 0.213944 -0.097860
2.890000 0.305970 0.716514 0.201097 -0.094751
2.900000 0.298317 0.711065 0.188515 -0.092387
2.910000 0.290416 0.704849 0.175711 -0.089020
2.920000 0.282355 0.694912 0.163175 -0.084854
2.930000 0.274253 0.684419 0.150769 -0.080580
2.940000 0.266221 0.679124 0.136768 -0.077298
2.950000 0.258353 0.680867 0.121240 -0.074504
2.960000 0.250754 0.682203 0.106434 -0.071313
2.970000 0.243538 0.685809 0.093738 -0.067975
2.980000 0.236815 0.689809 0.082667 -0.064430
2.990000 0.230686 0.693078 0.072675 -0.058985
3.000000 0.225253 0.693280 0.066676 -0.052574
3.010000 0.220605 0.692819 0.064867 -0.047180
3.020000 0.216734 0.693758 0.063234 -0.042131
3.030000 0.213529 0.696180 0.061716 -0.037135
3.040000 0.210834 0.700055 0.060252 -0.032661
3.050000 0.208496 0.704678 0.058781 -0.028552
3.060000 0.206342 0.709181 0.057159 -0.027099
3.070000 0.204140 0.711724 0.055076 -0.027025
3.080000 0.201717 0.713733 0.052865 -0.026810
3.090000 0.199025 0.715206 0.050531 -0.026523
3.100000 0.196042 0.716088 0.048066 -0.026187
3.110000 0.192757 0.716099 0.045954 -0.025676
3.120000 0.189206 0.715125 0.043940 -0.024823
3.130000 0.185461 0.713065 0.041904 -0.024018
3.140000 0.181591 0.710202 0.039865 -0.023294
3.150000 0.177660 0.706701 0.037705 -0.022736
3.160000 0.173732 0.702224 0.034458 -0.022444
3.170000 0.169862 0.697740 0.031317 -0.022266
3.180000 0.166138 0.693544 0.028334 -0.022215
3.190000 0.162674 0.689975 0.025570 -0.022360
3.200000 0.159589 0.687565 0.023570 -0.022543
3.210000 0.157005 0.686678 0.022893 -0.022775
3.220000 0.155046 0.687088 0.022342 -0.023271
3.230000 0.153808 0.689069 0.021940 -0.024013
3.240000 0.153353 0.692813 0.021704 -0.024964
3.250000 0.153723 0.698448 0.021646 -0.026106
3.260000 0.154941 0.705966 0.021781 -0.027510
3.270000 0.157012 0.715112 0.022130 -0.029189
3.280000 0.159896 0.725351 0.022716 -0.030634
3.290000 0.163450 0.736073 0.023529 -0.031784
3.300000 0.167465 0.746846 0.024528 -0.032534
3.310000 0.171737 0.757566 0.026591 -0.032843
3.320000 0.176084 0.767537 0.028844 -0.032728
3.330000 0.180318 0.776362 0.031049 -0.032361
3.340000 0.184259 0.784044 0.033113 -0.032012
3.350000 0.187761 0.790689 0.034969 -0.031463
3.360000 0.190763 0.796455 0.036597 -0.030805
3.370000 0.193307 0.801600 0.038025 -0.030203
3.380000 0.195498 0.806434 0.039316 -0.029821
3.390000 0.197448 0.811278 0.040538 -0.029713
3.400000 0.199274 0.816424 0.041761 -0.029837
3.410000 0.201105 0.822093 0.043053 -0.030186
3.420000 0.203060 0.828460 0.044477 -0.030768
3.430000 0.205237 0.835440 0.045605 -0.031535
3.440000 0.207721 0.843201 0.046743 -0.032450
3.450000 0.210591 0.851869 0.048055 -0.033512
3.460000 0.213922 0.861514 0.049573 -0.034675
3.470000 0.217766 0.872067 0.051320 -0.035640
3.480000 0.222153 0.883383 0.053307 -0.036646
3.490000 0.227093 0.895385 0.055578 -0.037622
3.500000 0.232571 0.907729 0.058671 -0.038485
3.510000 0.238537 0.920262 0.062012 -0.039198
3.520000 0.244906 0.932736 0.065548 -0.039679
3.530000 0.251576 0.943786 0.068839 -0.040086
3.540000 0.258438 0.952316 0.071821 -0.040583
3.550000 0.265363 0.959491 0.074782 -0.040879
3.560000 0.272216 0.965272 0.077656 -0.040948
3.570000 0.278897 0.968666 0.082756 -0.040000
3.580000 0.285338 0.965152 0.091901 -0.037655
3.590000 0.291426 0.958573 0.100309 -0.035101
3.600000 0.297031 0.949657 0.107991 -0.032346
3.610000 0.302133 0.939488 0.115385 -0.029640
3.620000 0.306822 0.929247 0.123360 -0.032220
3.630000 0.311234 0.917463 0.131251 -0.035968
3.640000 0.315512 0.904421 0.139285 -0.039945
3.650000 0.319783 0.890406 0.147589 -0.044101
3.660000 0.324148 0.878887 0.155580 -0.048359
3.670000 0.328674 0.870417 0.162475 -0.053414
3.680000 0.333404 0.862389 0.169704 -0.058689
3.690000 0.338374 0.854800 0.177297 -0.064220
3.700000 0.343608 0.847070 0.185295 -0.069980
3.710000 0.349119 0.838541 0.193852 -0.072643
3.720000 0.354908 0.831155 0.202795 -0.075342
3.730000 0.360931 0.824802 0.212046 -0.078047
3.740000 0.367135 0.825339 0.222488 -0.081738
3.750000 0.373467 0.826914 0.233094 -0.085420
3.760000 0.379864 0.828754 0.243672 -0.089215
3.770000 0.386254 0.828841 0.253823 -0.092784
3.780000 0.392570 0.827339 0.263487 -0.096258
3.790000 0.398742 0.826424 0.272923 -0.099814
3.800000 0.404695 0.826232 0.282099 -0.103248
3.810000 0.410361 0.827185 0.292169 -0.106727
3.820000 0.415701 0.828806 0.302246 -0.109366
3.830000 0.420733 0.830728 0.312221 -0.111856
3.840000 0.425506 0.832777 0.322008 -0.114325
3.850000 0.430042 0.834886 0.331559 -0.116765
3.860000 0.434356 0.837149 0.340947 -0.119039
3.870000 0.438496 0.839637 0.350236 -0.121298
3.880000 0.442527 0.842224 0.359362 -0.123535
3.890000 0.446474 0.843789 0.367231 -0.125445
3.900000 0.450299 0.843724 0.373278 -0.126851
3.910000 0.453920 0.843657 0.379054 -0.128192
3.920000 0.457276 0.843657 0.384595 -0.129456
3.930000 0.460385 0.843761 0.389957 -0.130666
3.940000 0.463325 0.843948 0.395214 -0.131785
3.950000 0.466164 0.844073 0.400433 -0.132580
3.960000 0.468942 0.843994 0.405649 -0.133378
3.970000 0.471686 0.843712 0.410849 -0.134164
3.980000 0.474411 0.843202 0.415980 -0.134933
3.990000 0.477107 0.842406 0.420951 -0.135668
4.000000 0.479740 0.841080 0.425497 -0.136296
4.010000 0.482240 0.839513 0.429763 -0.136883
4.020000 0.484513 0.837736 0.433654 -0.137419
4.030000 0.486441 0.835819 0.437105 -0.137898
4.040000 0.487914 0.833846 0.440072 -0.138318
4.050000 0.488845 0.831885 0.442517 -0.138760
4.060000 0.489177 0.829985 0.444412 -0.139202
4.070000 0.488885 0.828201 0.445754 -0.139587
4.080000 0.487970 0.826579 0.446556 -0.139918
4.090000 0.486465 0.825140 0.446834 -0.140194
4.100000 0.484425 0.823874 0.446596 -0.140415
4.110000 0.481921 0.822751 0.445848 -0.140577
4.120000 0.479015 0.821740 0.444596 -0.140678
4.130000 0.475753 0.820813 0.442839 -0.140712
4.140000 0.472166 0.819945 0.440566 -0.140669
4.150000 0.468270 0.819110 0.437760 -0.140546
4.160000 0.464071 0.818301 0.434417 -0.140340
4.170000 0.459557 0.817534 0.430560 -0.140048
4.180000 0.454718 0.816833 0.426229 -0.139670
4.190000 0.449566 0.816211 0.421474 -0.139210
4.200000 0.444141 0.815561 0.416259 -0.138647
4.210000 0.438495 0.814683 0.410486 -0.137950
4.220000 0.432669 0.813802 0.404366 -0.137179
4.230000 0.426681 0.812883 0.397888 -0.136333
4.240000 0.420532 0.811883 0.391020 -0.135443
4.250000 0.414206 0.810743 0.383711 -0.134584
4.260000 0.407670 0.809396 0.375891 -0.133641
4.270000 0.400874 0.807785 0.367482 -0.132607
4.280000 0.393761 0.804964 0.357606 -0.131211
4.290000 0.386296 0.798688 0.344201 -0.128810
4.300000 0.378465 0.791928 0.329967 -0.126270
4.310000 0.370279 0.784748 0.315003 -0.123609
4.320000 0.361775 0.777241 0.299453 -0.120855
