# time[s], AoA[rad], cl[-], cd[-], cm[-]
0.000000 0.322489 0.743863 0.224277 -0.093259
0.010000 0.314653 0.721416 0.208025 -0.086525
0.020000 0.306844 0.720000 0.193075 -0.082002
0.030000 0.299064 0.720000 0.178266 -0.077643
0.040000 0.291337 0.711848 0.163975 -0.072490
0.050000 0.283690 0.703085 0.149866 -0.067320
0.060000 0.276122 0.713968 0.132916 -0.060248
0.070000 0.268624 0.735449 0.114485 -0.052171
0.080000 0.261196 0.761960 0.096977 -0.043904
0.090000 0.253844 0.799403 0.081251 -0.035152
0.100000 0.246589 0.832600 0.067808 -0.028098
0.110000 0.239483 0.847404 0.064441 -0.028653
0.120000 0.232567 0.861815 0.061162 -0.029193
0.130000 0.225847 0.866446 0.057594 -0.029162
0.140000 0.219328 0.858146 0.053610 -0.028374
0.150000 0.213003 0.850092 0.049744 -0.027609
0.160000 0.206873 0.840535 0.046924 -0.027568
0.170000 0.200952 0.831282 0.044209 -0.027538
0.180000 0.195254 0.822380 0.041598 -0.027508
0.190000 0.189801 0.808740 0.037882 -0.026757
0.200000 0.184604 0.793851 0.033892 -0.025774
0.210000 0.179666 0.779705 0.030101 -0.024841
0.220000 0.174986 0.768519 0.027241 -0.024452
0.230000 0.170557 0.763444 0.026353 -0.025315
0.240000 0.166370 0.758646 0.025513 -0.026130
0.250000 0.162426 0.754127 0.024722 -0.026898
0.260000 0.158739 0.749902 0.023983 -0.027617
0.270000 0.155334 0.746000 0.023300 -0.028280
0.280000 0.152241 0.742455 0.022680 -0.028883
0.290000 0.149479 0.739291 0.022126 -0.029421
0.300000 0.147061 0.736519 0.021641 -0.029892
0.310000 0.144991 0.734148 0.021226 -0.030295
0.320000 0.143283 0.732190 0.020883 -0.030628
0.330000 0.141952 0.730665 0.020616 -0.030887
0.340000 0.141018 0.729087 0.020395 -0.030987
0.350000 0.140493 0.727735 0.020238 -0.030967
0.360000 0.140382 0.727447 0.020205 -0.030963
0.370000 0.140678 0.728210 0.020293 -0.030974
0.380000 0.141367 0.729989 0.020499 -0.031000
0.390000 0.142428 0.731210 0.020712 -0.030794
0.400000 0.143828 0.732814 0.020993 -0.030522
0.410000 0.145534 0.734770 0.021335 -0.030189
0.420000 0.147521 0.737046 0.021733 -0.029802
0.430000 0.149773 0.739627 0.022185 -0.029363
0.440000 0.152288 0.742509 0.022689 -0.028874
0.450000 0.155068 0.745695 0.023247 -0.028332
0.460000 0.158114 0.749186 0.023857 -0.027738
0.470000 0.161422 0.752976 0.024521 -0.027094
0.480000 0.164984 0.757058 0.025235 -0.026400
0.490000 0.168798 0.761428 0.026000 -0.025657
0.500000 0.172860 0.766083 0.026815 -0.024866
0.510000 0.177174 0.772567 0.028188 -0.024369
0.520000 0.181742 0.785653 0.031695 -0.025233
0.530000 0.186567 0.799475 0.035399 -0.026145
0.540000 0.191655 0.814050 0.039305 -0.027107
0.550000 0.197009 0.825121 0.042402 -0.027517
0.560000 0.202629 0.833903 0.044978 -0.027546
0.570000 0.208505 0.843085 0.047671 -0.027577
0.580000 0.214622 0.852154 0.050734 -0.027805
0.590000 0.220969 0.860235 0.054613 -0.028572
0.600000 0.227533 0.868592 0.058624 -0.029366
0.610000 0.234314 0.858175 0.061990 -0.029057
0.620000 0.241311 0.843596 0.065307 -0.028510
0.630000 0.248503 0.826609 0.069824 -0.028793
0.640000 0.255882 0.789027 0.085609 -0.037577
0.650000 0.263428 0.750595 0.101750 -0.046561
0.660000 0.271073 0.728433 0.120504 -0.054809
0.670000 0.278755 0.706427 0.139385 -0.063083
0.680000 0.286415 0.706208 0.154894 -0.069162
0.690000 0.294013 0.714914 0.168912 -0.074299
0.700000 0.301560 0.720000 0.183017 -0.079042
0.710000 0.309094 0.720000 0.197358 -0.083262
0.720000 0.316642 0.727113 0.212150 -0.088234
0.730000 0.324203 0.748774 0.227832 -0.094732
0.740000 0.331766 0.770176 0.243502 -0.101181
0.750000 0.339332 0.778846 0.258414 -0.105169
0.760000 0.346911 0.787531 0.273353 -0.109164
0.770000 0.354513 0.797432 0.289817 -0.113198
0.780000 0.362144 0.807841 0.306931 -0.117258
0.790000 0.369798 0.818283 0.324096 -0.121330
0.800000 0.377460 0.828735 0.341280 -0.125407
0.810000 0.385103 0.839161 0.358420 -0.129473
0.820000 0.392694 0.838001 0.371152 -0.131439
0.830000 0.400191 0.835854 0.383350 -0.133200
0.840000 0.407535 0.833750 0.395301 -0.134925
0.850000 0.414676 0.831704 0.406921 -0.136603
0.860000 0.421580 0.829453 0.418075 -0.138249
0.870000 0.428230 0.825642 0.428344 -0.139983
0.880000 0.434617 0.821983 0.438207 -0.141648
0.890000 0.440724 0.818484 0.447636 -0.143240
0.900000 0.446525 0.815160 0.456594 -0.144752
0.910000 0.451995 0.812026 0.465040 -0.146178
0.920000 0.457111 0.816194 0.475932 -0.149011
0.930000 0.461858 0.834802 0.492250 -0.154751
0.940000 0.466235 0.851962 0.507297 -0.160044
0.950000 0.470262 0.867750 0.521142 -0.164914
0.960000 0.473970 0.882285 0.533889 -0.169397
0.970000 0.477397 0.895720 0.545669 -0.173541
0.980000 0.480580 0.908199 0.556613 -0.177391
0.990000 0.483544 0.919818 0.566802 -0.180975
1.000000 0.486295 0.930601 0.576258 -0.184301
1.010000 0.488827 0.940426 0.584930 -0.187333
1.020000 0.491137 0.947703 0.592266 -0.189602
1.030000 0.493218 0.954261 0.598877 -0.191647
1.040000 0.495063 0.960077 0.604742 -0.193460
1.050000 0.496658 0.965101 0.609807 -0.195027
1.060000 0.497972 0.969242 0.613981 -0.196318
1.070000 0.498968 0.972382 0.617146 -0.197297
1.080000 0.499606 0.974391 0.619172 -0.197924
1.090000 0.499847 0.975151 0.619938 -0.198161
1.100000 0.499660 0.974564 0.619347 -0.197978
1.110000 0.499028 0.972569 0.617336 -0.197356
1.120000 0.497943 0.969153 0.613891 -0.196290
1.130000 0.496419 0.964348 0.609048 -0.194792
1.140000 0.494475 0.958223 0.602872 -0.192882
1.150000 0.492137 0.950856 0.595445 -0.190585
1.160000 0.489428 0.942317 0.586836 -0.187923
1.170000 0.486367 0.930883 0.576505 -0.184388
1.180000 0.482975 0.917587 0.564845 -0.180286
1.190000 0.479278 0.903094 0.552137 -0.175816
1.200000 0.475307 0.887528 0.538486 -0.171014
1.210000 0.471098 0.871028 0.524017 -0.165925
1.220000 0.466686 0.853731 0.508849 -0.160589
1.230000 0.462100 0.835752 0.493083 -0.155044
1.240000 0.457359 0.817168 0.476786 -0.149311
1.250000 0.452466 0.811756 0.465767 -0.146301
1.260000 0.447405 0.814656 0.457953 -0.144982
1.270000 0.442164 0.817659 0.449860 -0.143615
1.280000 0.436734 0.820770 0.441476 -0.142200
1.290000 0.431111 0.823992 0.432792 -0.140734
1.300000 0.425291 0.827326 0.423806 -0.139217
1.310000 0.419275 0.830387 0.414404 -0.137683
1.320000 0.413057 0.832168 0.404287 -0.136222
1.330000 0.406632 0.834008 0.393832 -0.134713
1.340000 0.399991 0.835911 0.383026 -0.133153
1.350000 0.393129 0.837877 0.371859 -0.131541
1.360000 0.386048 0.839905 0.360338 -0.129878
1.370000 0.378773 0.830526 0.344225 -0.126105
1.380000 0.371336 0.820380 0.327545 -0.122148
1.390000 0.363772 0.810062 0.310582 -0.118124
1.400000 0.356121 0.799625 0.293423 -0.114054
1.410000 0.348420 0.789260 0.276328 -0.109960
1.420000 0.340704 0.780418 0.261118 -0.105892
1.430000 0.332999 0.771589 0.245933 -0.101831
1.440000 0.325336 0.752019 0.230181 -0.095706
1.450000 0.317744 0.730269 0.214435 -0.089181
1.460000 0.310238 0.720000 0.199536 -0.083903
1.470000 0.302823 0.720000 0.185422 -0.079749
1.480000 0.295511 0.716630 0.171675 -0.075312
1.490000 0.288318 0.708388 0.158405 -0.070449
1.500000 0.281253 0.700292 0.145369 -0.065672
1.510000 0.274282 0.719239 0.128393 -0.058266
1.520000 0.267378 0.739019 0.111422 -0.050829
1.530000 0.260537 0.765318 0.095566 -0.043119
1.540000 0.253757 0.799849 0.081063 -0.035048
1.550000 0.247044 0.831651 0.068024 -0.028062
1.560000 0.240440 0.845411 0.064894 -0.028578
1.570000 0.233979 0.858872 0.061832 -0.029083
1.580000 0.227665 0.868761 0.058705 -0.029382
1.590000 0.221499 0.860910 0.054937 -0.028636
1.600000 0.215488 0.853256 0.051263 -0.027909
1.610000 0.209641 0.844860 0.048192 -0.027583
1.620000 0.203978 0.836011 0.045596 -0.027553
1.630000 0.198521 0.827483 0.043095 -0.027525
1.640000 0.193295 0.818750 0.040565 -0.027417
1.650000 0.188331 0.804528 0.036753 -0.026479
1.660000 0.183654 0.791130 0.033163 -0.025595
1.670000 0.179284 0.778611 0.029808 -0.024768
1.680000 0.175232 0.768801 0.027290 -0.024404
1.690000 0.171498 0.764522 0.026541 -0.025131
1.700000 0.168077 0.760602 0.025855 -0.025798
1.710000 0.164975 0.757047 0.025233 -0.026402
1.720000 0.162199 0.753866 0.024677 -0.026943
1.730000 0.159761 0.751073 0.024188 -0.027418
1.740000 0.157665 0.748670 0.023767 -0.027826
1.750000 0.155902 0.746651 0.023414 -0.028169
1.760000 0.154458 0.744996 0.023124 -0.028451
1.770000 0.153316 0.743687 0.022895 -0.028673
1.780000 0.152467 0.742715 0.022725 -0.028839
1.790000 0.151916 0.742082 0.022614 -0.028946
1.800000 0.151670 0.741800 0.022565 -0.028994
1.810000 0.151735 0.741876 0.022578 -0.028981
1.820000 0.152113 0.742309 0.022654 -0.028907
1.830000 0.152799 0.743095 0.022792 -0.028774
1.840000 0.153783 0.744222 0.022989 -0.028582
1.850000 0.155051 0.745676 0.023243 -0.028335
1.860000 0.156596 0.747446 0.023553 -0.028034
1.870000 0.158416 0.749531 0.023918 -0.027680
1.880000 0.160515 0.751937 0.024339 -0.027271
1.890000 0.162907 0.754678 0.024819 -0.026805
1.900000 0.165605 0.757769 0.025360 -0.026279
1.910000 0.168616 0.761220 0.025964 -0.025693
1.920000 0.171949 0.765039 0.026632 -0.025043
1.930000 0.175606 0.769230 0.027365 -0.024331
1.940000 0.179582 0.779464 0.030036 -0.024825
1.950000 0.183865 0.791734 0.033325 -0.025634
1.960000 0.188443 0.804850 0.036840 -0.026500
1.970000 0.193303 0.818772 0.040571 -0.027419
1.980000 0.198432 0.827345 0.043055 -0.027524
1.990000 0.203816 0.835758 0.045522 -0.027553
2.000000 0.209433 0.844536 0.048097 -0.027582
2.010000 0.215261 0.852968 0.051125 -0.027882
2.020000 0.221276 0.860627 0.054801 -0.028610
2.030000 0.227453 0.868492 0.058576 -0.029357
2.040000 0.233784 0.859279 0.061739 -0.029098
2.050000 0.240271 0.845763 0.064814 -0.028591
2.060000 0.246913 0.831926 0.067962 -0.028072
2.070000 0.253730 0.799984 0.081007 -0.035016
2.080000 0.260744 0.764266 0.096008 -0.043365
2.090000 0.267927 0.737445 0.112772 -0.051420
2.100000 0.275239 0.716498 0.130744 -0.059297
2.110000 0.282644 0.701887 0.147938 -0.066613
2.120000 0.290109 0.710441 0.161709 -0.071660
2.130000 0.297621 0.719049 0.175569 -0.076739
2.140000 0.305203 0.720000 0.189951 -0.081082
2.150000 0.312871 0.720000 0.204547 -0.085378
2.160000 0.320607 0.738471 0.220373 -0.091641
2.170000 0.328375 0.760727 0.236486 -0.098318
2.180000 0.336158 0.775209 0.252160 -0.103496
2.190000 0.343951 0.784139 0.267518 -0.107604
2.200000 0.351744 0.793653 0.283605 -0.111725
2.210000 0.359518 0.804259 0.301041 -0.115861
2.220000 0.367258 0.814817 0.318399 -0.119979
2.230000 0.374952 0.825314 0.335656 -0.124072
2.240000 0.382594 0.835739 0.352795 -0.128138
2.250000 0.390178 0.838722 0.367058 -0.130848
2.260000 0.397695 0.836569 0.379289 -0.132614
2.270000 0.405127 0.834440 0.391383 -0.134359
2.280000 0.412445 0.832343 0.403290 -0.136078
2.290000 0.419610 0.830290 0.414950 -0.137762
2.300000 0.426587 0.826584 0.425807 -0.139554
2.310000 0.433347 0.822710 0.436246 -0.141317
2.320000 0.439873 0.818971 0.446322 -0.143018
2.330000 0.446150 0.815375 0.456014 -0.144654
2.340000 0.452164 0.811929 0.465301 -0.146222
2.350000 0.457890 0.819248 0.478610 -0.149953
2.360000 0.463296 0.840442 0.497195 -0.156490
2.370000 0.468366 0.860318 0.514625 -0.162621
2.380000 0.473109 0.878911 0.530930 -0.168356
2.390000 0.477543 0.896293 0.546172 -0.173718
2.400000 0.481687 0.912536 0.560416 -0.178728
2.410000 0.485551 0.927685 0.573701 -0.183401
2.420000 0.489137 0.941402 0.585913 -0.187637
2.430000 0.492438 0.951805 0.596401 -0.190881
2.440000 0.495446 0.961283 0.605958 -0.193837
2.450000 0.498153 0.969813 0.614557 -0.196496
2.460000 0.500555 0.977382 0.622188 -0.198856
2.470000 0.502649 0.983981 0.628841 -0.200914
2.480000 0.504431 0.989597 0.634503 -0.202665
2.490000 0.505894 0.994207 0.639151 -0.204103
2.500000 0.507029 0.997785 0.642757 -0.205218
2.510000 0.507829 1.000304 0.645298 -0.206004
2.520000 0.508284 1.001738 0.646743 -0.206451
2.530000 0.508382 1.002049 0.647057 -0.206548
2.540000 0.508111 1.001195 0.646195 -0.206282
2.550000 0.507457 0.999132 0.644115 -0.205638
2.560000 0.506407 0.995824 0.640781 -0.204607
2.570000 0.504956 0.991253 0.636172 -0.203182
2.580000 0.503105 0.985418 0.630289 -0.201362
2.590000 0.500860 0.978343 0.623156 -0.199156
2.600000 0.498234 0.970070 0.614816 -0.196576
2.610000 0.495245 0.960650 0.605319 -0.193639
2.620000 0.491911 0.950142 0.594725 -0.190363
2.630000 0.488252 0.938273 0.582985 -0.186667
2.640000 0.484293 0.922754 0.569376 -0.181880
2.650000 0.480062 0.906167 0.554831 -0.176764
2.660000 0.475583 0.888610 0.539435 -0.171348
2.670000 0.470876 0.870158 0.523254 -0.165656
2.680000 0.465951 0.850851 0.506323 -0.159701
2.690000 0.460811 0.830701 0.488653 -0.153485
2.700000 0.455456 0.810043 0.470385 -0.147081
2.710000 0.449874 0.813241 0.461765 -0.145625
2.720000 0.444054 0.816576 0.452778 -0.144108
2.730000 0.438000 0.820044 0.443430 -0.142530
2.740000 0.431716 0.823645 0.433727 -0.140892
2.750000 0.425205 0.827376 0.423672 -0.139194
2.760000 0.418469 0.830617 0.413093 -0.137494
2.770000 0.411518 0.832609 0.401782 -0.135861
2.780000 0.404360 0.834659 0.390134 -0.134179
2.790000 0.397004 0.836767 0.378165 -0.132451
2.800000 0.389463 0.838927 0.365894 -0.130680
2.810000 0.381754 0.834593 0.350910 -0.127691
2.820000 0.373905 0.823885 0.333308 -0.123515
2.830000 0.365946 0.813028 0.315458 -0.119281
2.840000 0.357906 0.802060 0.297426 -0.115003
2.850000 0.349816 0.791024 0.279283 -0.110699
2.860000 0.341705 0.781565 0.263093 -0.106420
2.870000 0.333600 0.772277 0.247116 -0.102147
2.880000 0.325528 0.752570 0.230581 -0.095871
2.890000 0.317520 0.729627 0.213970 -0.088988
2.900000 0.309581 0.720000 0.198286 -0.083535
2.910000 0.301708 0.720000 0.183299 -0.079124
2.920000 0.293907 0.714792 0.168715 -0.074227
2.930000 0.286192 0.705952 0.154482 -0.069012
2.940000 0.278555 0.706999 0.138895 -0.062869
2.950000 0.270963 0.728748 0.120235 -0.054691
2.960000 0.263412 0.750678 0.101715 -0.046541
2.970000 0.255907 0.788899 0.085662 -0.037607
2.980000 0.248456 0.826847 0.069724 -0.028737
2.990000 0.241112 0.844012 0.065212 -0.028525
3.000000 0.233906 0.859025 0.061797 -0.029088
3.010000 0.226834 0.867703 0.058197 -0.029282
3.020000 0.219926 0.858908 0.053976 -0.028446
3.030000 0.213217 0.850365 0.049875 -0.027635
3.040000 0.206722 0.840299 0.046854 -0.027568
3.050000 0.200462 0.830518 0.043985 -0.027535
3.060000 0.194451 0.821124 0.041230 -0.027504
3.070000 0.188701 0.805590 0.037038 -0.026549
3.080000 0.183234 0.789926 0.032840 -0.025515
3.090000 0.178064 0.775115 0.028871 -0.024538
3.100000 0.173199 0.766472 0.026883 -0.024800
3.110000 0.168644 0.761252 0.025969 -0.025687
3.120000 0.164394 0.756382 0.025117 -0.026515
3.130000 0.160439 0.751850 0.024324 -0.027285
3.140000 0.156770 0.747645 0.023588 -0.028000
3.150000 0.153373 0.743753 0.022907 -0.028662
3.160000 0.150228 0.740149 0.022276 -0.029275
3.170000 0.147324 0.736821 0.021694 -0.029840
3.180000 0.144672 0.733782 0.021162 -0.030357
3.190000 0.142292 0.731055 0.020685 -0.030821
3.200000 0.140208 0.726999 0.020153 -0.030957
3.210000 0.138445 0.722454 0.019628 -0.030891
3.220000 0.137027 0.718797 0.019205 -0.030838
3.230000 0.135975 0.716086 0.018892 -0.030799
3.240000 0.135316 0.714387 0.018696 -0.030774
3.250000 0.135065 0.713739 0.018621 -0.030765
3.260000 0.135215 0.714125 0.018666 -0.030771
3.270000 0.135744 0.715489 0.018823 -0.030790
3.280000 0.136628 0.717770 0.019087 -0.030823
3.290000 0.137852 0.720924 0.019451 -0.030869
3.300000 0.139405 0.724928 0.019914 -0.030927
3.310000 0.141278 0.729760 0.020472 -0.030997
3.320000 0.143461 0.732394 0.020919 -0.030593
3.330000 0.145935 0.735229 0.021415 -0.030111
3.340000 0.148688 0.738384 0.021967 -0.029575
3.350000 0.151714 0.741851 0.022574 -0.028985
3.360000 0.155012 0.745631 0.023235 -0.028343
3.370000 0.158589 0.749730 0.023953 -0.027646
3.380000 0.162448 0.754152 0.024727 -0.026894
3.390000 0.166592 0.758900 0.025558 -0.026087
3.400000 0.171020 0.763974 0.026446 -0.025224
3.410000 0.175728 0.769369 0.027390 -0.024307
3.420000 0.180705 0.782681 0.030898 -0.025037
3.430000 0.185937 0.797671 0.034916 -0.026026
3.440000 0.191417 0.813369 0.039123 -0.027062
3.450000 0.197144 0.825332 0.042464 -0.027518
3.460000 0.203124 0.834678 0.045205 -0.027549
3.470000 0.209364 0.844427 0.048065 -0.027581
3.480000 0.215857 0.853726 0.051489 -0.027954
3.490000 0.222594 0.862304 0.055606 -0.028769
3.500000 0.229562 0.868076 0.059738 -0.029428
3.510000 0.236756 0.853086 0.063148 -0.028866
3.520000 0.244167 0.837646 0.066661 -0.028287
3.530000 0.251782 0.809909 0.076838 -0.032696
3.540000 0.259599 0.770094 0.093561 -0.042003
3.550000 0.267593 0.738403 0.111951 -0.051061
3.560000 0.275709 0.715153 0.131899 -0.059802
3.570000 0.283886 0.703310 0.150229 -0.067453
3.580000 0.292068 0.712685 0.165323 -0.072984
3.590000 0.300236 0.720000 0.180496 -0.078300
3.600000 0.308416 0.720000 0.196067 -0.082882
3.610000 0.316629 0.727075 0.212122 -0.088222
3.620000 0.324868 0.750678 0.229211 -0.095303
3.630000 0.333120 0.771727 0.246171 -0.101895
3.640000 0.341392 0.781206 0.262475 -0.106255
3.650000 0.349692 0.790855 0.279005 -0.110633
3.660000 0.358020 0.802215 0.297681 -0.115064
3.670000 0.366363 0.813596 0.316392 -0.119503
3.680000 0.374707 0.824979 0.335106 -0.123942
3.690000 0.383035 0.836340 0.353783 -0.128373
3.700000 0.391334 0.838391 0.368938 -0.131119
3.710000 0.399592 0.836025 0.382376 -0.133059
3.720000 0.407790 0.833677 0.395716 -0.134985
3.730000 0.415900 0.831353 0.408913 -0.136890
3.740000 0.423885 0.828132 0.421634 -0.138850
3.750000 0.431701 0.823653 0.433704 -0.140888
3.760000 0.439310 0.819294 0.445452 -0.142871
3.770000 0.446682 0.815070 0.456835 -0.144793
3.780000 0.453799 0.810992 0.467825 -0.146648
3.790000 0.460630 0.829988 0.488028 -0.153265
3.800000 0.467131 0.855475 0.510378 -0.161127
3.810000 0.473272 0.879550 0.531490 -0.168554
3.820000 0.479034 0.902136 0.551296 -0.175520
3.830000 0.484405 0.923194 0.569762 -0.182016
3.840000 0.489389 0.942194 0.586712 -0.187884
3.850000 0.494000 0.956728 0.601364 -0.192416
3.860000 0.498269 0.970179 0.614926 -0.196610
3.870000 0.502222 0.982636 0.627485 -0.200495
3.880000 0.505878 0.994156 0.639099 -0.204087
3.890000 0.509241 1.004753 0.649783 -0.207391
3.900000 0.512310 1.014426 0.659535 -0.210407
3.910000 0.515086 1.023175 0.668356 -0.213136
3.920000 0.517572 1.031008 0.676252 -0.215578
3.930000 0.519767 1.037924 0.683225 -0.217734
3.940000 0.521668 1.043916 0.689266 -0.219603
3.950000 0.523267 1.048956 0.694347 -0.221174
3.960000 0.524548 1.051554 0.697769 -0.222163
3.970000 0.525487 1.053090 0.700113 -0.222819
3.980000 0.526060 1.054029 0.701545 -0.223219
3.990000 0.526247 1.054335 0.702011 -0.223350
4.000000 0.526028 1.053976 0.701463 -0.223196
4.010000 0.525386 1.052925 0.699861 -0.222748
4.020000 0.524309 1.051162 0.697173 -0.221996
4.030000 0.522792 1.047457 0.692837 -0.220707
4.040000 0.520840 1.041306 0.686635 -0.218789
4.050000 0.518463 1.033815 0.679083 -0.216453
4.060000 0.515671 1.025018 0.670214 -0.213710
4.070000 0.512476 1.014949 0.660062 -0.210571
4.080000 0.508891 1.003653 0.648674 -0.207048
4.090000 0.504936 0.991187 0.636106 -0.203161
4.100000 0.500635 0.977633 0.622441 -0.198935
4.110000 0.496017 0.963083 0.607772 -0.194398
4.120000 0.491115 0.947634 0.592196 -0.189580
4.130000 0.485956 0.929271 0.575092 -0.183891
4.140000 0.480563 0.908131 0.556553 -0.177370
4.150000 0.474951 0.886133 0.537262 -0.170584
4.160000 0.469131 0.863314 0.517253 -0.163545
4.170000 0.463109 0.839708 0.496552 -0.156264
4.180000 0.456898 0.815358 0.475199 -0.148753
4.190000 0.450495 0.812885 0.462724 -0.145787
4.200000 0.443891 0.816669 0.452527 -0.144066
4.210000 0.437082 0.820571 0.442012 -0.142290
4.220000 0.430061 0.824593 0.431171 -0.140460
4.230000 0.422820 0.828742 0.419991 -0.138572
4.240000 0.415359 0.831509 0.408032 -0.136763
4.250000 0.407677 0.833709 0.395532 -0.134958
4.260000 0.399779 0.835972 0.382681 -0.133103
4.270000 0.391677 0.838293 0.369498 -0.131200
4.280000 0.383392 0.836827 0.354583 -0.128563
4.290000 0.374959 0.825323 0.335672 -0.124076
4.300000 0.366420 0.813675 0.316521 -0.119533
4.310000 0.357813 0.801933 0.297218 -0.114954
4.320000 0.349174 0.790147 0.277842 -0.110357
