# time[s], AoA[rad], cl[-], cd[-], cm[-]
0.000000 0.316292 0.722465 0.211401 -0.085994
0.010000 0.313179 0.720844 0.204977 -0.085053
0.020000 0.310076 0.718832 0.198983 -0.083994
0.030000 0.306989 0.716736 0.193032 -0.083147
0.040000 0.303922 0.714358 0.187131 -0.082206
0.050000 0.300878 0.711745 0.181283 -0.081186
0.060000 0.297859 0.708943 0.175525 -0.080096
0.070000 0.294869 0.705996 0.169956 -0.078949
0.080000 0.291908 0.702939 0.164451 -0.077752
0.090000 0.288979 0.699804 0.159009 -0.076513
0.100000 0.286082 0.696579 0.153630 -0.075197
0.110000 0.283215 0.693129 0.148310 -0.073621
0.120000 0.280378 0.689670 0.142674 -0.072015
0.130000 0.277573 0.686224 0.135794 -0.070386
0.140000 0.274803 0.682763 0.128996 -0.068741
0.150000 0.272067 0.679234 0.122283 -0.067082
0.160000 0.269369 0.675652 0.115659 -0.065416
0.170000 0.266707 0.672036 0.109125 -0.063746
0.180000 0.264080 0.669492 0.102672 -0.061102
0.190000 0.261491 0.666934 0.096978 -0.058446
0.200000 0.258955 0.664389 0.091567 -0.055816
0.210000 0.256478 0.661872 0.086280 -0.053219
0.220000 0.254060 0.659373 0.081116 -0.050655
0.230000 0.251698 0.657123 0.076067 -0.048122
0.240000 0.249388 0.655405 0.071121 -0.045617
0.250000 0.247122 0.654260 0.067459 -0.042937
0.260000 0.244895 0.653598 0.066402 -0.040229
0.270000 0.242706 0.653371 0.065357 -0.037553
0.280000 0.240552 0.653557 0.064326 -0.034911
0.290000 0.238431 0.654119 0.063306 -0.032299
0.300000 0.236340 0.655024 0.062297 -0.029716
0.310000 0.234274 0.656387 0.061295 -0.027157
0.320000 0.232238 0.657557 0.060301 -0.026327
0.330000 0.230229 0.658878 0.059315 -0.026428
0.340000 0.228216 0.660643 0.058265 -0.026509
0.350000 0.226175 0.662701 0.056963 -0.026555
0.360000 0.224095 0.665043 0.055627 -0.026581
0.370000 0.221978 0.667655 0.054261 -0.026600
0.380000 0.219821 0.670397 0.052863 -0.026612
0.390000 0.217626 0.673051 0.051437 -0.026620
0.400000 0.215399 0.675570 0.049987 -0.026633
0.410000 0.213143 0.677761 0.048515 -0.026317
0.420000 0.210865 0.679782 0.047342 -0.025883
0.430000 0.208582 0.681789 0.046195 -0.025458
0.440000 0.206312 0.683851 0.045050 -0.025054
0.450000 0.204071 0.686008 0.043917 -0.024673
0.460000 0.201874 0.688300 0.042802 -0.024319
0.470000 0.199728 0.690561 0.041712 -0.023997
0.480000 0.197640 0.692486 0.040656 -0.023899
0.490000 0.195618 0.694176 0.039635 -0.023889
0.500000 0.193663 0.695682 0.038628 -0.023897
0.510000 0.191782 0.697029 0.037092 -0.023914
0.520000 0.189983 0.698280 0.035625 -0.023944
0.530000 0.188278 0.699497 0.034240 -0.023996
0.540000 0.186674 0.700665 0.032945 -0.024062
0.550000 0.185170 0.701738 0.031740 -0.024137
0.560000 0.183749 0.702621 0.030615 -0.024200
0.570000 0.182387 0.703201 0.029547 -0.024226
0.580000 0.181055 0.703390 0.028510 -0.024062
0.590000 0.179725 0.703161 0.027481 -0.023680
0.600000 0.178375 0.702500 0.026439 -0.023251
0.610000 0.176992 0.701467 0.025373 -0.022791
0.620000 0.175569 0.700149 0.024683 -0.022322
0.630000 0.174112 0.698667 0.024393 -0.021868
0.640000 0.172631 0.697105 0.024097 -0.021447
0.650000 0.171143 0.695502 0.023799 -0.021077
0.660000 0.169659 0.693859 0.023502 -0.020758
0.670000 0.168195 0.692200 0.023208 -0.020480
0.680000 0.166765 0.690594 0.022920 -0.020244
0.690000 0.165388 0.689052 0.022646 -0.020506
0.700000 0.164080 0.687654 0.022392 -0.020921
0.710000 0.162849 0.686397 0.022161 -0.021354
0.720000 0.161701 0.685272 0.021957 -0.021798
0.730000 0.160633 0.684243 0.021778 -0.022242
0.740000 0.159640 0.683273 0.021622 -0.022675
0.750000 0.158712 0.682362 0.021485 -0.023082
0.760000 0.157842 0.681575 0.021362 -0.023457
0.770000 0.157026 0.680917 0.021251 -0.023800
0.780000 0.156263 0.680416 0.021154 -0.024125
0.790000 0.155553 0.680058 0.021072 -0.024435
0.800000 0.154892 0.679797 0.021006 -0.024728
0.810000 0.154272 0.679577 0.020954 -0.024999
0.820000 0.153681 0.679333 0.020912 -0.025240
0.830000 0.153103 0.678986 0.020874 -0.025440
0.840000 0.152523 0.678495 0.020834 -0.025597
0.850000 0.151930 0.677884 0.020787 -0.025722
0.860000 0.151322 0.677240 0.020731 -0.025838
0.870000 0.150705 0.676720 0.020669 -0.025983
0.880000 0.150096 0.676461 0.020606 -0.026180
0.890000 0.149512 0.676568 0.020546 -0.026442
0.900000 0.148969 0.677061 0.020496 -0.026762
0.910000 0.148481 0.677920 0.020459 -0.027120
0.920000 0.148056 0.679085 0.020437 -0.027493
0.930000 0.147699 0.680530 0.020433 -0.027870
0.940000 0.147419 0.682249 0.020451 -0.028249
0.950000 0.147223 0.684274 0.020495 -0.028639
0.960000 0.147117 0.686596 0.020570 -0.029041
0.970000 0.147102 0.689157 0.020678 -0.029447
0.980000 0.147173 0.691880 0.020820 -0.029841
0.990000 0.147322 0.694644 0.020991 -0.030200
1.000000 0.147536 0.697365 0.021187 -0.030510
1.010000 0.147798 0.699979 0.021399 -0.030759
1.020000 0.148097 0.702457 0.021621 -0.030945
1.030000 0.148419 0.704811 0.021848 -0.031077
1.040000 0.148757 0.707066 0.022074 -0.031166
1.050000 0.149104 0.709244 0.022298 -0.031221
1.060000 0.149457 0.711367 0.022518 -0.031253
1.070000 0.149812 0.713447 0.022733 -0.031270
1.080000 0.150165 0.715493 0.022939 -0.031275
1.090000 0.150513 0.717495 0.023137 -0.031268
1.100000 0.150856 0.719532 0.023325 -0.031268
1.110000 0.151202 0.721675 0.023508 -0.031293
1.120000 0.151560 0.724019 0.023688 -0.031361
1.130000 0.151945 0.726650 0.023875 -0.031490
1.140000 0.152377 0.729646 0.024077 -0.031691
1.150000 0.152871 0.733024 0.024304 -0.031962
1.160000 0.153445 0.736766 0.024562 -0.032290
1.170000 0.154108 0.740825 0.024857 -0.032656
1.180000 0.154864 0.745104 0.025189 -0.033030
1.190000 0.155715 0.749496 0.025559 -0.033382
1.200000 0.156655 0.753970 0.025962 -0.033702
1.210000 0.157676 0.758449 0.026392 -0.033971
1.220000 0.158769 0.762853 0.026846 -0.034172
1.230000 0.159925 0.767166 0.027317 -0.034306
1.240000 0.161132 0.771381 0.027800 -0.034380
1.250000 0.162375 0.775435 0.028287 -0.034384
1.260000 0.163641 0.779317 0.028771 -0.034323
1.270000 0.164921 0.783060 0.029248 -0.034212
1.280000 0.166206 0.786678 0.029712 -0.034058
1.290000 0.167488 0.790170 0.030160 -0.033867
1.300000 0.168761 0.793537 0.030588 -0.033642
1.310000 0.170020 0.796796 0.030994 -0.033391
1.320000 0.171263 0.800824 0.031521 -0.033129
1.330000 0.172494 0.806006 0.032230 -0.032871
1.340000 0.173718 0.811297 0.032941 -0.032629
1.350000 0.174942 0.816843 0.033657 -0.032442
1.360000 0.176173 0.822532 0.034381 -0.032278
1.370000 0.177423 0.828446 0.035768 -0.032156
1.380000 0.178703 0.834612 0.037256 -0.032078
1.390000 0.180025 0.841005 0.038797 -0.032033
1.400000 0.181400 0.847630 0.040405 -0.032020
1.410000 0.182834 0.854449 0.042089 -0.032028
1.420000 0.184328 0.861360 0.043849 -0.032033
1.430000 0.185877 0.868284 0.045683 -0.032014
1.440000 0.187472 0.875116 0.047579 -0.031951
1.450000 0.189103 0.881796 0.049524 -0.031868
1.460000 0.190755 0.888236 0.051506 -0.032230
1.470000 0.192417 0.894476 0.053507 -0.032556
1.480000 0.194070 0.900442 0.055400 -0.032836
1.490000 0.195705 0.906183 0.056878 -0.033094
1.500000 0.197313 0.911751 0.058342 -0.033341
1.510000 0.198891 0.917255 0.059781 -0.033604
1.520000 0.200436 0.922670 0.061178 -0.033892
1.530000 0.201947 0.927984 0.062525 -0.034210
1.540000 0.203431 0.933239 0.063827 -0.034566
1.550000 0.204900 0.938530 0.065095 -0.034982
1.560000 0.206364 0.943919 0.066341 -0.035470
1.570000 0.207832 0.949382 0.067573 -0.036018
1.580000 0.209315 0.954962 0.068800 -0.036456
1.590000 0.210826 0.960695 0.070036 -0.036862
1.600000 0.212377 0.966625 0.071292 -0.037333
1.610000 0.213979 0.972723 0.072738 -0.037852
1.620000 0.215639 0.978992 0.074315 -0.038413
1.630000 0.217362 0.985405 0.075946 -0.039002
1.640000 0.219152 0.991872 0.077635 -0.039605
1.650000 0.221007 0.998354 0.079394 -0.040213
1.660000 0.222924 1.004884 0.081238 -0.040820
1.670000 0.224898 1.011427 0.083159 -0.041427
1.680000 0.226920 1.017937 0.085148 -0.042028
1.690000 0.228979 1.024379 0.087137 -0.042620
1.700000 0.231063 1.030692 0.088908 -0.043267
1.710000 0.233156 1.036787 0.090702 -0.044031
1.720000 0.235247 1.042719 0.092507 -0.044787
1.730000 0.237325 1.048525 0.094312 -0.045551
1.740000 0.239386 1.054275 0.096109 -0.046348
1.750000 0.241428 1.059995 0.097894 -0.047185
1.760000 0.243455 1.065703 0.099669 -0.048068
1.770000 0.245477 1.071463 0.101443 -0.049015
1.780000 0.247506 1.077347 0.103230 -0.050038
1.790000 0.249553 1.083182 0.107841 -0.050919
1.800000 0.251629 1.088993 0.113041 -0.051707
1.810000 0.253745 1.094925 0.118338 -0.052556
1.820000 0.255913 1.100927 0.123761 -0.053448
1.830000 0.258143 1.106971 0.129342 -0.054374
1.840000 0.260441 1.113075 0.135096 -0.055344
1.850000 0.262792 1.119061 0.140988 -0.056337
1.860000 0.265175 1.124563 0.147503 -0.057290
1.870000 0.267576 1.129672 0.154410 -0.058226
1.880000 0.269991 1.134707 0.161456 -0.059232
1.890000 0.272412 1.138673 0.168614 -0.062339
1.900000 0.274837 1.142185 0.175861 -0.066170
1.910000 0.277271 1.145623 0.183207 -0.070128
1.920000 0.279727 1.149036 0.190687 -0.074228
1.930000 0.282221 1.152431 0.197616 -0.078475
1.940000 0.284766 1.155806 0.204099 -0.082871
1.950000 0.287366 1.159076 0.210816 -0.087397
1.960000 0.290019 1.162091 0.217726 -0.091949
1.970000 0.292719 1.164802 0.224849 -0.096431
1.980000 0.295452 1.167279 0.232194 -0.101033
1.990000 0.298203 1.169478 0.239717 -0.105777
2.000000 0.300960 1.171396 0.247521 -0.110660
2.010000 0.303719 1.173109 0.255421 -0.115702
2.020000 0.306484 1.174675 0.263448 -0.120916
2.030000 0.309259 1.176170 0.271607 -0.126310
2.040000 0.312050 1.178608 0.279894 -0.131117
2.050000 0.314862 1.181340 0.288398 -0.135857
2.060000 0.317701 1.183932 0.297382 -0.140696
2.070000 0.320569 1.186371 0.306543 -0.145595
2.080000 0.323471 1.188672 0.315799 -0.150557
2.090000 0.326411 1.190801 0.325166 -0.155572
2.100000 0.329395 1.192800 0.334657 -0.160649
2.110000 0.332419 1.194393 0.344179 -0.165524
2.120000 0.335471 1.195919 0.353519 -0.170379
2.130000 0.338540 1.197461 0.362793 -0.175256
2.140000 0.341615 1.198833 0.371950 -0.180099
2.150000 0.344691 1.200083 0.380980 -0.184840
2.160000 0.347763 1.201233 0.389883 -0.189484
2.170000 0.350835 1.203039 0.399158 -0.194819
2.180000 0.353920 1.204918 0.408736 -0.200149
2.190000 0.357033 1.206811 0.418305 -0.205431
2.200000 0.360182 1.208647 0.427903 -0.210659
2.210000 0.363367 1.210425 0.437558 -0.215834
2.220000 0.366582 1.212152 0.447268 -0.220973
2.230000 0.369811 1.213489 0.456995 -0.225276
2.240000 0.373046 1.214651 0.466711 -0.229358
2.250000 0.376293 1.215793 0.476441 -0.233404
2.260000 0.379558 1.217156 0.486187 -0.237443
2.270000 0.382839 1.218649 0.495870 -0.241435
2.280000 0.386144 1.220096 0.505179 -0.245314
2.290000 0.389482 1.221469 0.512584 -0.249032
2.300000 0.392852 1.222847 0.519867 -0.252580
2.310000 0.396258 1.224232 0.527074 -0.255960
2.320000 0.399701 1.225564 0.534218 -0.259174
2.330000 0.403170 1.226769 0.541319 -0.262227
2.340000 0.406655 1.227947 0.548420 -0.265157
2.350000 0.410146 1.229174 0.555531 -0.268031
2.360000 0.413633 1.230433 0.562633 -0.270869
2.370000 0.417112 1.231722 0.569718 -0.273673
2.380000 0.420577 1.233082 0.576771 -0.276452
2.390000 0.424013 1.234480 0.583466 -0.279190
2.400000 0.427409 1.235919 0.590043 -0.281323
2.410000 0.430755 1.237390 0.596481 -0.282945
2.420000 0.434048 1.238868 0.602779 -0.284486
2.430000 0.437293 1.240380 0.608944 -0.285958
2.440000 0.440493 1.241893 0.614982 -0.287354
2.450000 0.443654 1.243384 0.620900 -0.288673
2.460000 0.446783 1.244839 0.626707 -0.289912
2.470000 0.449890 1.246227 0.632417 -0.291064
2.480000 0.452972 1.247514 0.638021 -0.292119
2.490000 0.456012 1.248663 0.644385 -0.293062
2.500000 0.458990 1.249670 0.655445 -0.293894
2.510000 0.461903 1.250417 0.666186 -0.294687
2.520000 0.464763 1.250908 0.676715 -0.295371
2.530000 0.467579 1.251322 0.687164 -0.296011
2.540000 0.470350 1.251643 0.697515 -0.296677
2.550000 0.473066 1.251816 0.707721 -0.297350
2.560000 0.475720 1.251859 0.717739 -0.298021
2.570000 0.478302 1.246772 0.724934 -0.298676
2.580000 0.480801 1.234914 0.728349 -0.297066
2.590000 0.483208 1.223299 0.731555 -0.292431
2.600000 0.485521 1.211919 0.734547 -0.287922
2.610000 0.487745 1.200788 0.737345 -0.283543
2.620000 0.489893 1.190342 0.739670 -0.281482
2.630000 0.491950 1.180204 0.741560 -0.279986
2.640000 0.493869 1.170178 0.743105 -0.278499
2.650000 0.495627 1.160289 0.744223 -0.277024
2.660000 0.497236 1.150610 0.744961 -0.275581
2.670000 0.498715 1.141140 0.745386 -0.274170
2.680000 0.500081 1.131859 0.745551 -0.272780
2.690000 0.501352 1.122754 0.745526 -0.271414
2.700000 0.502554 1.113824 0.745399 -0.270076
2.710000 0.503710 1.105058 0.745240 -0.268768
2.720000 0.504833 1.096430 0.745094 -0.267486
2.730000 0.505929 1.087943 0.744980 -0.266229
2.740000 0.506996 1.079587 0.744880 -0.264995
2.750000 0.508023 1.071369 0.744760 -0.263781
2.760000 0.508995 1.063318 0.744565 -0.262543
2.770000 0.509894 1.055582 0.744226 -0.260999
2.780000 0.510706 1.048272 0.743700 -0.259490
2.790000 0.511432 1.041666 0.742986 -0.258021
2.800000 0.512077 1.035728 0.742099 -0.256591
2.810000 0.512645 1.030403 0.741051 -0.255191
2.820000 0.513139 1.025641 0.739853 -0.253816
2.830000 0.513561 1.021393 0.738507 -0.252461
2.840000 0.513909 1.017602 0.737002 -0.251116
2.850000 0.514176 1.014222 0.735316 -0.249771
2.860000 0.514352 1.011201 0.733411 -0.248413
2.870000 0.514428 1.008489 0.731258 -0.247030
2.880000 0.514402 1.006044 0.728848 -0.245612
2.890000 0.514270 1.003826 0.726168 -0.244153
2.900000 0.514021 1.001794 0.723179 -0.242644
2.910000 0.513648 0.999919 0.719856 -0.241087
2.920000 0.513154 0.998189 0.716208 -0.239491
2.930000 0.512553 0.996591 0.712277 -0.237867
2.940000 0.511862 0.995106 0.708126 -0.236227
2.950000 0.511106 0.993707 0.703825 -0.234580
2.960000 0.510302 0.992350 0.699438 -0.239076
2.970000 0.509440 0.991015 0.694922 -0.240111
2.980000 0.508508 0.989639 0.690238 -0.238454
2.990000 0.507511 0.988292 0.685408 -0.235071
3.000000 0.506450 0.986980 0.680427 -0.230797
3.010000 0.505356 0.985723 0.675397 -0.226269
3.020000 0.504296 0.984551 0.670539 -0.221923
3.030000 0.503326 0.983452 0.666028 -0.217998
3.040000 0.502465 0.982374 0.661927 -0.214582
3.050000 0.501713 0.981278 0.658230 -0.211677
3.060000 0.501062 0.980113 0.654915 -0.209233
3.070000 0.500497 0.978813 0.651925 -0.207165
3.080000 0.499957 0.977323 0.649060 -0.205369
3.090000 0.499327 0.975566 0.645940 -0.203719
3.100000 0.498485 0.973490 0.642167 -0.202102
3.110000 0.497368 0.971095 0.637536 -0.200443
3.120000 0.495980 0.968436 0.632064 -0.198716
3.130000 0.494362 0.965565 0.625888 -0.196923
3.140000 0.492559 0.962509 0.619155 -0.195075
3.150000 0.490599 0.959269 0.611953 -0.193180
3.160000 0.488497 0.955819 0.604276 -0.191232
3.170000 0.486273 0.952149 0.595703 -0.189230
3.180000 0.483952 0.948283 0.586824 -0.187185
3.190000 0.481558 0.944355 0.577733 -0.184806
3.200000 0.479125 0.940322 0.568541 -0.182259
3.210000 0.476679 0.936139 0.559338 -0.179712
3.220000 0.474227 0.931805 0.550153 -0.177173
3.230000 0.471773 0.927315 0.540989 -0.174646
3.240000 0.469324 0.922686 0.531878 -0.172141
3.250000 0.466901 0.917947 0.522890 -0.169677
3.260000 0.464534 0.913128 0.514126 -0.167278
3.270000 0.462252 0.908253 0.505690 -0.164969
3.280000 0.460072 0.903327 0.497638 -0.162758
3.290000 0.457993 0.898313 0.489962 -0.160629
3.300000 0.456005 0.893173 0.482622 -0.158549
3.310000 0.454084 0.887876 0.478276 -0.156477
3.320000 0.452193 0.882382 0.474893 -0.154366
3.330000 0.450285 0.876721 0.471577 -0.152160
3.340000 0.448312 0.871076 0.468180 -0.149804
3.350000 0.446211 0.865564 0.464598 -0.147253
3.360000 0.443905 0.860412 0.460708 -0.145816
3.370000 0.441337 0.855512 0.456420 -0.145099
3.380000 0.438499 0.850729 0.451718 -0.144324
3.390000 0.435425 0.846103 0.446658 -0.143510
3.400000 0.432181 0.841694 0.441342 -0.142680
3.410000 0.428836 0.837552 0.435878 -0.141852
3.420000 0.425454 0.833709 0.430364 -0.141037
3.430000 0.422088 0.830181 0.424884 -0.140243
3.440000 0.418789 0.826976 0.419362 -0.139473
3.450000 0.415594 0.824095 0.413899 -0.138732
3.460000 0.412525 0.821528 0.408652 -0.138020
3.470000 0.409583 0.819256 0.403625 -0.137334
3.480000 0.406770 0.817242 0.398818 -0.136697
3.490000 0.404079 0.815469 0.394220 -0.136119
3.500000 0.401489 0.813909 0.389797 -0.135554
3.510000 0.398974 0.812501 0.385503 -0.134991
3.520000 0.396506 0.811197 0.381297 -0.134426
3.530000 0.394059 0.809960 0.377132 -0.133853
3.540000 0.391601 0.808745 0.372957 -0.133264
3.550000 0.389101 0.807498 0.368723 -0.132650
3.560000 0.386528 0.806172 0.364376 -0.132005
3.570000 0.383845 0.804710 0.358706 -0.131319
3.580000 0.381025 0.803075 0.352202 -0.130588
3.590000 0.378041 0.801243 0.345335 -0.129810
3.600000 0.374873 0.799204 0.338059 -0.128988
3.610000 0.371508 0.796976 0.330345 -0.128004
3.620000 0.367949 0.794628 0.322195 -0.126107
3.630000 0.364219 0.792177 0.313662 -0.124154
3.640000 0.360362 0.789696 0.304845 -0.122173
3.650000 0.356436 0.787127 0.295876 -0.120196
3.660000 0.352509 0.784382 0.286914 -0.118255
3.670000 0.348651 0.781552 0.278226 -0.116375
3.680000 0.344915 0.778701 0.270731 -0.114575
3.690000 0.341345 0.775852 0.263570 -0.112856
3.700000 0.337956 0.773026 0.256778 -0.111219
3.710000 0.334740 0.770190 0.250333 -0.109647
3.720000 0.331672 0.767273 0.244190 -0.108125
3.730000 0.328729 0.764234 0.238003 -0.106646
3.740000 0.325884 0.761100 0.231999 -0.105186
3.750000 0.323106 0.757839 0.226139 -0.103731
3.760000 0.320364 0.754418 0.220361 -0.102268
3.770000 0.317624 0.750822 0.214591 -0.100785
3.780000 0.314847 0.747003 0.208747 -0.099155
3.790000 0.311995 0.742702 0.203129 -0.096636
3.800000 0.309043 0.738185 0.197475 -0.094041
3.810000 0.305985 0.733471 0.191617 -0.091372
3.820000 0.302821 0.728575 0.185559 -0.088633
3.830000 0.299559 0.723516 0.179315 -0.085835
3.840000 0.296213 0.718466 0.173032 -0.083350
3.850000 0.292806 0.713500 0.166701 -0.081453
3.860000 0.289354 0.708206 0.160291 -0.079551
3.870000 0.285866 0.702621 0.153821 -0.077649
3.880000 0.282359 0.696801 0.147316 -0.075759
3.890000 0.278859 0.690620 0.139558 -0.073639
3.900000 0.275405 0.684503 0.131069 -0.071442
3.910000 0.272035 0.678883 0.122776 -0.069313
3.920000 0.268788 0.673773 0.114777 -0.067266
3.930000 0.265695 0.669176 0.107150 -0.065310
3.940000 0.262773 0.665218 0.100189 -0.063306
3.950000 0.260019 0.662678 0.094281 -0.060414
3.960000 0.257420 0.660244 0.088708 -0.057627
3.970000 0.254949 0.657870 0.083411 -0.054922
3.980000 0.252570 0.655486 0.078309 -0.052263
3.990000 0.250240 0.653037 0.073312 -0.049614
4.000000 0.247920 0.650476 0.068335 -0.046946
4.010000 0.245582 0.647978 0.067093 -0.044150
4.020000 0.243202 0.645891 0.065956 -0.041096
4.030000 0.240748 0.644217 0.064779 -0.037960
4.040000 0.238192 0.642872 0.063547 -0.034726
4.050000 0.235518 0.641817 0.062251 -0.031395
4.060000 0.232729 0.641037 0.060892 -0.027974
4.070000 0.229848 0.639930 0.059482 -0.025776
4.080000 0.226903 0.638251 0.057786 -0.025848
4.090000 0.223899 0.637222 0.055874 -0.025921
4.100000 0.220835 0.636721 0.053914 -0.025972
4.110000 0.217725 0.636767 0.051916 -0.026019
4.120000 0.214587 0.637361 0.049888 -0.026068
4.130000 0.211433 0.638451 0.048070 -0.026119
4.140000 0.208274 0.639459 0.046493 -0.025627
4.150000 0.205110 0.640578 0.044904 -0.025102
4.160000 0.201970 0.641828 0.043314 -0.024578
4.170000 0.198926 0.643509 0.041762 -0.024116
4.180000 0.196027 0.645794 0.040271 -0.023746
4.190000 0.193277 0.648435 0.038704 -0.023587
4.200000 0.190666 0.651116 0.036523 -0.023543
4.210000 0.188181 0.653516 0.034446 -0.023488
4.220000 0.185797 0.655431 0.032457 -0.023416
4.230000 0.183478 0.656711 0.030530 -0.023294
4.240000 0.181189 0.657286 0.028636 -0.023113
4.250000 0.178892 0.657147 0.026744 -0.022881
4.260000 0.176555 0.656227 0.024829 -0.022595
4.270000 0.174159 0.654675 0.024092 -0.021859
4.280000 0.171702 0.652537 0.023508 -0.021070
4.290000 0.169200 0.650019 0.022919 -0.020308
4.300000 0.166667 0.647246 0.022329 -0.019589
4.310000 0.164116 0.644271 0.021738 -0.018907
4.320000 0.161562 0.641116 0.021149 -0.018249
