# time[s], AoA[rad], cl[-], cd[-], cm[-]
0.000000 0.316288 0.726173 0.211416 -0.086146
0.010000 0.313182 0.720226 0.205140 -0.083772
0.020000 0.310096 0.717352 0.199265 -0.082058
0.030000 0.307034 0.714644 0.193438 -0.080354
0.040000 0.304007 0.712095 0.187675 -0.078668
0.050000 0.301019 0.709699 0.181988 -0.077003
0.060000 0.298073 0.707243 0.176402 -0.075316
0.070000 0.295169 0.703574 0.171045 -0.073358
0.080000 0.292306 0.699957 0.165763 -0.071428
0.090000 0.289481 0.696386 0.160551 -0.069521
0.100000 0.286690 0.692853 0.155402 -0.067634
0.110000 0.283928 0.689351 0.150306 -0.065765
0.120000 0.281192 0.685874 0.145258 -0.063911
0.130000 0.278470 0.687321 0.138686 -0.061053
0.140000 0.275756 0.689360 0.132014 -0.058106
0.150000 0.273065 0.691614 0.125400 -0.055183
0.160000 0.270414 0.694060 0.118885 -0.052307
0.170000 0.267817 0.696679 0.112500 -0.049487
0.180000 0.265276 0.699455 0.106256 -0.046727
0.190000 0.262785 0.702995 0.100375 -0.043925
0.200000 0.260324 0.708057 0.095111 -0.040948
0.210000 0.257878 0.713354 0.089879 -0.037966
0.220000 0.255442 0.718867 0.084668 -0.034982
0.230000 0.253018 0.724577 0.079482 -0.032002
0.240000 0.250611 0.730468 0.074335 -0.029035
0.250000 0.248224 0.736522 0.069229 -0.026081
0.260000 0.245866 0.740293 0.067466 -0.025639
0.270000 0.243533 0.743616 0.066360 -0.025683
0.280000 0.241196 0.746882 0.065252 -0.025698
0.290000 0.238809 0.750023 0.064121 -0.025672
0.300000 0.236340 0.752994 0.062951 -0.025590
0.310000 0.233781 0.755786 0.061738 -0.025485
0.320000 0.231123 0.758394 0.060478 -0.025363
0.330000 0.228369 0.760604 0.059136 -0.025173
0.340000 0.225538 0.760552 0.057405 -0.024489
0.350000 0.222651 0.759969 0.055641 -0.023843
0.360000 0.219722 0.758923 0.053851 -0.023233
0.370000 0.216767 0.757488 0.052045 -0.022652
0.380000 0.213809 0.755751 0.050237 -0.022109
0.390000 0.210876 0.753649 0.048758 -0.021844
0.400000 0.207999 0.751374 0.047440 -0.021739
0.410000 0.205211 0.749103 0.046162 -0.021707
0.420000 0.202537 0.746937 0.044936 -0.021745
0.430000 0.199998 0.744955 0.043772 -0.021843
0.440000 0.197601 0.743194 0.042673 -0.021981
0.450000 0.195338 0.741642 0.041636 -0.022130
0.460000 0.193194 0.740156 0.040487 -0.022158
0.470000 0.191155 0.738489 0.038922 -0.021885
0.480000 0.189217 0.736820 0.037434 -0.021612
0.490000 0.187377 0.735175 0.036021 -0.021359
0.500000 0.185629 0.733557 0.034679 -0.021130
0.510000 0.183958 0.731932 0.033396 -0.020901
0.520000 0.182343 0.730245 0.032156 -0.020643
0.530000 0.180761 0.728433 0.030941 -0.020349
0.540000 0.179188 0.726427 0.029734 -0.020012
0.550000 0.177605 0.724168 0.028519 -0.019630
0.560000 0.176001 0.721692 0.027444 -0.019320
0.570000 0.174374 0.719268 0.027118 -0.019518
0.580000 0.172729 0.716774 0.026788 -0.019735
0.590000 0.171074 0.714242 0.026456 -0.019981
0.600000 0.169422 0.711721 0.026125 -0.020269
0.610000 0.167788 0.709259 0.025797 -0.020609
0.620000 0.166183 0.706901 0.025476 -0.020987
0.630000 0.164623 0.704699 0.025163 -0.021405
0.640000 0.163124 0.702711 0.024862 -0.021852
0.650000 0.161704 0.700993 0.024577 -0.022327
0.660000 0.160377 0.699596 0.024311 -0.022830
0.670000 0.159155 0.698555 0.024066 -0.023347
0.680000 0.158044 0.697884 0.023843 -0.023872
0.690000 0.157043 0.697570 0.023643 -0.024388
0.700000 0.156146 0.697575 0.023463 -0.024874
0.710000 0.155339 0.697841 0.023301 -0.025310
0.720000 0.154607 0.698299 0.023154 -0.025684
0.730000 0.153935 0.698884 0.023019 -0.025990
0.740000 0.153308 0.699542 0.022894 -0.026235
0.750000 0.152719 0.700240 0.022776 -0.026438
0.760000 0.152161 0.700952 0.022664 -0.026615
0.770000 0.151625 0.701647 0.022556 -0.026773
0.780000 0.151101 0.702289 0.022451 -0.026905
0.790000 0.150579 0.702836 0.022346 -0.027007
0.800000 0.150050 0.703261 0.022240 -0.027085
0.810000 0.149511 0.703564 0.022132 -0.027158
0.820000 0.148968 0.703773 0.022023 -0.027256
0.830000 0.148435 0.703949 0.021916 -0.027406
0.840000 0.147927 0.704170 0.021815 -0.027630
0.850000 0.147464 0.704516 0.021722 -0.027931
0.860000 0.147062 0.705054 0.021641 -0.028295
0.870000 0.146732 0.705828 0.021575 -0.028701
0.880000 0.146483 0.706863 0.021525 -0.029123
0.890000 0.146320 0.708175 0.021492 -0.029553
0.900000 0.146248 0.709779 0.021478 -0.029983
0.910000 0.146273 0.711685 0.021483 -0.030408
0.920000 0.146395 0.713888 0.021507 -0.030820
0.930000 0.146611 0.716362 0.021551 -0.031200
0.940000 0.146911 0.719057 0.021611 -0.031523
0.950000 0.147282 0.721900 0.021685 -0.031772
0.960000 0.147705 0.724810 0.021770 -0.031932
0.970000 0.148162 0.727704 0.021862 -0.031999
0.980000 0.148635 0.730504 0.021957 -0.031984
0.990000 0.149108 0.733150 0.022052 -0.031897
1.000000 0.149570 0.735599 0.022144 -0.031759
1.010000 0.150015 0.737836 0.022233 -0.031594
1.020000 0.150439 0.739864 0.022318 -0.031422
1.030000 0.150844 0.741701 0.022400 -0.031264
1.040000 0.151234 0.743376 0.022478 -0.031132
1.050000 0.151616 0.744925 0.022554 -0.031036
1.060000 0.151997 0.746395 0.022631 -0.030982
1.070000 0.152390 0.747841 0.022709 -0.030978
1.080000 0.152807 0.749328 0.022793 -0.031031
1.090000 0.153265 0.750924 0.022885 -0.031142
1.100000 0.153779 0.752690 0.022988 -0.031311
1.110000 0.154363 0.754679 0.023105 -0.031524
1.120000 0.155025 0.756922 0.023238 -0.031764
1.130000 0.155772 0.759429 0.023388 -0.032007
1.140000 0.156603 0.762189 0.023555 -0.032230
1.150000 0.157517 0.765176 0.023738 -0.032414
1.160000 0.158507 0.768354 0.023936 -0.032548
1.170000 0.159566 0.771680 0.024149 -0.032621
1.180000 0.160685 0.775107 0.024373 -0.032636
1.190000 0.161853 0.778583 0.024607 -0.032584
1.200000 0.163058 0.782051 0.024849 -0.032468
1.210000 0.164286 0.785456 0.025095 -0.032292
1.220000 0.165525 0.788749 0.025344 -0.032061
1.230000 0.166765 0.791896 0.025592 -0.031787
1.240000 0.167999 0.794875 0.025840 -0.031485
1.250000 0.169223 0.797679 0.026085 -0.031168
1.260000 0.170437 0.800314 0.026329 -0.030849
1.270000 0.171640 0.802800 0.026570 -0.030540
1.280000 0.172839 0.805164 0.026810 -0.030251
1.290000 0.174039 0.807439 0.027051 -0.029987
1.300000 0.175249 0.809665 0.027294 -0.029754
1.310000 0.176475 0.811910 0.027651 -0.029627
1.320000 0.177729 0.814380 0.028614 -0.029928
1.330000 0.179016 0.817048 0.029602 -0.030265
1.340000 0.180341 0.819921 0.030619 -0.030620
1.350000 0.181706 0.823004 0.031667 -0.030989
1.360000 0.183113 0.826297 0.032747 -0.031366
1.370000 0.184562 0.829796 0.033860 -0.031751
1.380000 0.186052 0.833485 0.035004 -0.032137
1.390000 0.187579 0.837346 0.036177 -0.032516
1.400000 0.189141 0.841359 0.037376 -0.032885
1.410000 0.190733 0.845501 0.038597 -0.033243
1.420000 0.192348 0.849747 0.039838 -0.033583
1.430000 0.193982 0.854032 0.041015 -0.033859
1.440000 0.195629 0.858154 0.041770 -0.033861
1.450000 0.197289 0.862189 0.042530 -0.033855
1.460000 0.198962 0.866145 0.043297 -0.033852
1.470000 0.200648 0.870024 0.044070 -0.033847
1.480000 0.202344 0.873827 0.044848 -0.033839
1.490000 0.204051 0.877554 0.045630 -0.033828
1.500000 0.205768 0.881213 0.046417 -0.033815
1.510000 0.207498 0.884815 0.047210 -0.033805
1.520000 0.209242 0.888378 0.048010 -0.033808
1.530000 0.211006 0.891918 0.048818 -0.033822
1.540000 0.212794 0.895454 0.049637 -0.033847
1.550000 0.214608 0.898881 0.050725 -0.034077
1.560000 0.216453 0.902292 0.051853 -0.034335
1.570000 0.218331 0.905708 0.053001 -0.034604
1.580000 0.220244 0.909134 0.054170 -0.034881
1.590000 0.222193 0.912572 0.055361 -0.035158
1.600000 0.224176 0.916017 0.056573 -0.035429
1.610000 0.226193 0.919470 0.057806 -0.035694
1.620000 0.228247 0.922939 0.059061 -0.035966
1.630000 0.230341 0.925285 0.060107 -0.035907
1.640000 0.232472 0.926998 0.061117 -0.035756
1.650000 0.234636 0.928262 0.062143 -0.035578
1.660000 0.236826 0.929081 0.063181 -0.035353
1.670000 0.239048 0.929483 0.064234 -0.035081
1.680000 0.241302 0.929490 0.065303 -0.034804
1.690000 0.243571 0.929069 0.066378 -0.034528
1.700000 0.245830 0.928184 0.067449 -0.034209
1.710000 0.248076 0.926596 0.068911 -0.034169
1.720000 0.250317 0.922333 0.073704 -0.036708
1.730000 0.252559 0.917334 0.078502 -0.039279
1.740000 0.254816 0.911648 0.083329 -0.041883
1.750000 0.257114 0.905326 0.088245 -0.044580
1.760000 0.259495 0.898403 0.093338 -0.047439
1.770000 0.262002 0.890876 0.098700 -0.050509
1.780000 0.264658 0.883443 0.104736 -0.053682
1.790000 0.267458 0.876641 0.111618 -0.056822
1.800000 0.270392 0.869586 0.118831 -0.060042
1.810000 0.273459 0.862225 0.126370 -0.063360
1.820000 0.276649 0.854502 0.134210 -0.066780
1.830000 0.279939 0.846366 0.142296 -0.070259
1.840000 0.283312 0.841831 0.149170 -0.072852
1.850000 0.286760 0.839409 0.155531 -0.075052
1.860000 0.290262 0.837390 0.161992 -0.077271
1.870000 0.293792 0.835697 0.168505 -0.079482
1.880000 0.297328 0.834265 0.175028 -0.081684
1.890000 0.300864 0.831900 0.181693 -0.083602
1.900000 0.304417 0.829095 0.188456 -0.085423
1.910000 0.308010 0.826367 0.195295 -0.087306
1.920000 0.311655 0.823720 0.202233 -0.089241
1.930000 0.315344 0.822742 0.209458 -0.091554
1.940000 0.319071 0.825436 0.217188 -0.094636
1.950000 0.322834 0.828676 0.224992 -0.097762
1.960000 0.326612 0.832381 0.232829 -0.100912
1.970000 0.330379 0.836452 0.240641 -0.104036
1.980000 0.334126 0.838936 0.248153 -0.106301
1.990000 0.337857 0.840632 0.255508 -0.108162
2.000000 0.341571 0.842385 0.262827 -0.110018
2.010000 0.345272 0.844198 0.270123 -0.111868
2.020000 0.348989 0.846109 0.277448 -0.113744
2.030000 0.352750 0.848601 0.285862 -0.115689
2.040000 0.356572 0.851312 0.294433 -0.117686
2.050000 0.360450 0.854214 0.303132 -0.119713
2.060000 0.364364 0.857259 0.311909 -0.121746
2.070000 0.368282 0.860386 0.320697 -0.123760
2.080000 0.372180 0.863549 0.329438 -0.125742
2.090000 0.376038 0.866712 0.338092 -0.127691
2.100000 0.379841 0.869846 0.346621 -0.129607
2.110000 0.383572 0.872925 0.354988 -0.131483
2.120000 0.387217 0.874902 0.362240 -0.132866
2.130000 0.390771 0.875281 0.368023 -0.133590
2.140000 0.394234 0.875408 0.373657 -0.134298
2.150000 0.397607 0.875308 0.379146 -0.134988
2.160000 0.400900 0.875009 0.384505 -0.135662
2.170000 0.404132 0.874543 0.389763 -0.136330
2.180000 0.407324 0.873939 0.394958 -0.137002
2.190000 0.410497 0.873223 0.400121 -0.137684
2.200000 0.413660 0.872407 0.405268 -0.138371
2.210000 0.416817 0.871500 0.410405 -0.139062
2.220000 0.419964 0.870507 0.415526 -0.139752
2.230000 0.423098 0.869162 0.420420 -0.140501
2.240000 0.426215 0.867646 0.425233 -0.141264
2.250000 0.429316 0.866034 0.430020 -0.142021
2.260000 0.432404 0.864335 0.434789 -0.142776
2.270000 0.435492 0.862558 0.439557 -0.143537
2.280000 0.438589 0.860710 0.444340 -0.144304
2.290000 0.441704 0.858797 0.449149 -0.145078
2.300000 0.444840 0.856821 0.453991 -0.145858
2.310000 0.447992 0.854781 0.458860 -0.146639
2.320000 0.451146 0.852676 0.463729 -0.147416
2.330000 0.454276 0.850505 0.468562 -0.148176
2.340000 0.457354 0.853236 0.476768 -0.150645
2.350000 0.460346 0.859294 0.487053 -0.154192
2.360000 0.463221 0.865322 0.496938 -0.157595
2.370000 0.465962 0.871251 0.506358 -0.160835
2.380000 0.468558 0.877038 0.515283 -0.163906
2.390000 0.471005 0.882653 0.523696 -0.166802
2.400000 0.473303 0.888075 0.531594 -0.169521
2.410000 0.475458 0.893309 0.539003 -0.172073
2.420000 0.477491 0.898389 0.545992 -0.174484
2.430000 0.479428 0.903372 0.552654 -0.176788
2.440000 0.481294 0.908303 0.559066 -0.179014
2.450000 0.483097 0.913196 0.565265 -0.181170
2.460000 0.484836 0.918033 0.571242 -0.183248
2.470000 0.486500 0.922780 0.576964 -0.185234
2.480000 0.488076 0.927390 0.582382 -0.187108
2.490000 0.489550 0.931608 0.587224 -0.188659
2.500000 0.490912 0.935472 0.591552 -0.189957
2.510000 0.492161 0.939107 0.595521 -0.191143
2.520000 0.493302 0.942515 0.599145 -0.192223
2.530000 0.494338 0.945701 0.602438 -0.193202
2.540000 0.495276 0.948669 0.605418 -0.194083
2.550000 0.496119 0.951421 0.608095 -0.194870
2.560000 0.496863 0.953946 0.610458 -0.195556
2.570000 0.497501 0.956223 0.612485 -0.196135
2.580000 0.498025 0.958228 0.614150 -0.196597
2.590000 0.498426 0.959935 0.615425 -0.196934
2.600000 0.498697 0.961322 0.616285 -0.197140
2.610000 0.498831 0.962370 0.616711 -0.197210
2.620000 0.498827 0.963069 0.616700 -0.197145
2.630000 0.498690 0.963422 0.616264 -0.196951
2.640000 0.498430 0.963446 0.615438 -0.196642
2.650000 0.498064 0.963175 0.614275 -0.196236
2.660000 0.497614 0.962652 0.612845 -0.195757
2.670000 0.497105 0.961934 0.611229 -0.195231
2.680000 0.496566 0.961082 0.609514 -0.194686
2.690000 0.496019 0.960153 0.607779 -0.194145
2.700000 0.495485 0.959192 0.606082 -0.193622
2.710000 0.494970 0.958221 0.604446 -0.193121
2.720000 0.494471 0.957236 0.602860 -0.192635
2.730000 0.493975 0.956212 0.601282 -0.192145
2.740000 0.493462 0.955109 0.599652 -0.191632
2.750000 0.492913 0.953886 0.597909 -0.191075
2.760000 0.492310 0.952501 0.595995 -0.190457
2.770000 0.491639 0.950917 0.593862 -0.189766
2.780000 0.490889 0.949110 0.591478 -0.188991
2.790000 0.490054 0.947062 0.588826 -0.188132
2.800000 0.489134 0.944769 0.585903 -0.187188
2.810000 0.488130 0.942094 0.582569 -0.186036
2.820000 0.487047 0.939038 0.578846 -0.184690
2.830000 0.485890 0.935701 0.574865 -0.183256
2.840000 0.484660 0.932091 0.570639 -0.181738
2.850000 0.483363 0.928213 0.566181 -0.180142
2.860000 0.482005 0.924081 0.561512 -0.178477
2.870000 0.480595 0.919716 0.556662 -0.176753
2.880000 0.479141 0.915141 0.551665 -0.174984
2.890000 0.477656 0.910388 0.546560 -0.173184
2.900000 0.476152 0.905491 0.541390 -0.171367
2.910000 0.474643 0.900489 0.536201 -0.169550
2.920000 0.473141 0.895423 0.531040 -0.167747
2.930000 0.471662 0.890334 0.525953 -0.165975
2.940000 0.470214 0.885260 0.520976 -0.164245
2.950000 0.468805 0.880227 0.516134 -0.162564
2.960000 0.467439 0.875252 0.511437 -0.160933
2.970000 0.466112 0.870336 0.506875 -0.159349
2.980000 0.464817 0.865467 0.502424 -0.157801
2.990000 0.463544 0.860619 0.498046 -0.156276
3.000000 0.462279 0.855762 0.493696 -0.154756
3.010000 0.461008 0.850860 0.489329 -0.153227
3.020000 0.459721 0.845881 0.484906 -0.151674
3.030000 0.458410 0.840801 0.480397 -0.150089
3.040000 0.457061 0.835583 0.475761 -0.148458
3.050000 0.455657 0.830171 0.470934 -0.146755
3.060000 0.454188 0.828248 0.468426 -0.146241
3.070000 0.452653 0.826816 0.466056 -0.145829
3.080000 0.451059 0.825535 0.463595 -0.145403
3.090000 0.449414 0.824394 0.461055 -0.144966
3.100000 0.447730 0.823388 0.458454 -0.144520
3.110000 0.446017 0.822506 0.455809 -0.144070
3.120000 0.444289 0.821743 0.453140 -0.143619
3.130000 0.442558 0.821091 0.450469 -0.143170
3.140000 0.440840 0.820544 0.447815 -0.142728
3.150000 0.439144 0.820096 0.445197 -0.142294
3.160000 0.437481 0.819740 0.442628 -0.141871
3.170000 0.435853 0.819470 0.440114 -0.141457
3.180000 0.434262 0.819278 0.437658 -0.141051
3.190000 0.432707 0.819157 0.435257 -0.140654
3.200000 0.431185 0.819101 0.432907 -0.140264
3.210000 0.429689 0.819102 0.430597 -0.139877
3.220000 0.428212 0.819152 0.428316 -0.139492
3.230000 0.426743 0.819245 0.426048 -0.139107
3.240000 0.425276 0.819376 0.423782 -0.138719
3.250000 0.423801 0.819537 0.421505 -0.138327
3.260000 0.422312 0.819725 0.419205 -0.137928
3.270000 0.420802 0.819935 0.416875 -0.137522
3.280000 0.419270 0.820014 0.414397 -0.137145
3.290000 0.417714 0.820080 0.411864 -0.136766
3.300000 0.416134 0.820150 0.409293 -0.136380
3.310000 0.414531 0.820224 0.406685 -0.135991
3.320000 0.412910 0.820303 0.404047 -0.135598
3.330000 0.411272 0.820386 0.401382 -0.135203
3.340000 0.409623 0.820475 0.398699 -0.134806
3.350000 0.407971 0.820572 0.396011 -0.134410
3.360000 0.406323 0.820681 0.393328 -0.134017
3.370000 0.404680 0.820800 0.390655 -0.133625
3.380000 0.403040 0.820927 0.387987 -0.133233
3.390000 0.401397 0.821057 0.385313 -0.132837
3.400000 0.399741 0.821183 0.382618 -0.132434
3.410000 0.398063 0.821300 0.379888 -0.132021
3.420000 0.396355 0.821403 0.377108 -0.131596
3.430000 0.394609 0.821487 0.374269 -0.131160
3.440000 0.392821 0.821548 0.371358 -0.130709
3.450000 0.390985 0.821584 0.368370 -0.130244
3.460000 0.389099 0.821593 0.365302 -0.129765
3.470000 0.387160 0.821573 0.362148 -0.129272
3.480000 0.385167 0.821132 0.358565 -0.128600
3.490000 0.383120 0.819572 0.353974 -0.127471
3.500000 0.381024 0.817842 0.349273 -0.126319
3.510000 0.378885 0.815955 0.344476 -0.125148
3.520000 0.376708 0.813925 0.339594 -0.123960
3.530000 0.374499 0.811763 0.334639 -0.122758
3.540000 0.372260 0.809479 0.329619 -0.121542
3.550000 0.369998 0.807085 0.324545 -0.120315
3.560000 0.367716 0.804590 0.319427 -0.119080
3.570000 0.365417 0.802003 0.314270 -0.117838
3.580000 0.363101 0.799327 0.309078 -0.116589
3.590000 0.360771 0.796569 0.303852 -0.115333
3.600000 0.358432 0.793738 0.298606 -0.114073
3.610000 0.356092 0.790851 0.293357 -0.112816
3.620000 0.353760 0.787925 0.288128 -0.111569
3.630000 0.351447 0.784978 0.282941 -0.110337
3.640000 0.349159 0.782023 0.277810 -0.109122
3.650000 0.346899 0.779344 0.273329 -0.107934
3.660000 0.344664 0.776699 0.268925 -0.106760
3.670000 0.342450 0.774070 0.264561 -0.105594
3.680000 0.340249 0.771445 0.260221 -0.104430
3.690000 0.338048 0.768807 0.255884 -0.103261
3.700000 0.335838 0.766141 0.251528 -0.102082
3.710000 0.333608 0.763431 0.247134 -0.100888
3.720000 0.331356 0.760465 0.242667 -0.099594
3.730000 0.329084 0.755821 0.237955 -0.097623
3.740000 0.326798 0.750995 0.233215 -0.095647
3.750000 0.324500 0.746001 0.228449 -0.093662
3.760000 0.322191 0.740851 0.223659 -0.091670
3.770000 0.319875 0.735559 0.218854 -0.089673
3.780000 0.317556 0.730148 0.214046 -0.087679
3.790000 0.315240 0.724633 0.209241 -0.085691
3.800000 0.312924 0.720827 0.204649 -0.084073
3.810000 0.310608 0.718619 0.200240 -0.082773
3.820000 0.308291 0.716532 0.195829 -0.081470
3.830000 0.305969 0.714551 0.191410 -0.080163
3.840000 0.303640 0.712662 0.186977 -0.078845
3.850000 0.301305 0.710858 0.182532 -0.077522
3.860000 0.298967 0.709134 0.178083 -0.076197
3.870000 0.296627 0.706515 0.173735 -0.074659
3.880000 0.294283 0.703627 0.169410 -0.073057
3.890000 0.291937 0.700725 0.165082 -0.071455
3.900000 0.289594 0.697815 0.160758 -0.069861
3.910000 0.287257 0.694906 0.156448 -0.068282
3.920000 0.284939 0.692012 0.152170 -0.066717
3.930000 0.282647 0.689148 0.147942 -0.065171
3.940000 0.280380 0.687525 0.143380 -0.063389
3.950000 0.278124 0.689144 0.137837 -0.060950
3.960000 0.275870 0.690975 0.132295 -0.058499
3.970000 0.273605 0.692999 0.126728 -0.056025
3.980000 0.271318 0.695201 0.121107 -0.053512
3.990000 0.268994 0.697565 0.115393 -0.050941
4.000000 0.266603 0.700076 0.109517 -0.048277
4.010000 0.264124 0.702717 0.103424 -0.045485
4.020000 0.261565 0.707080 0.097765 -0.042355
4.030000 0.258949 0.712165 0.092169 -0.039091
4.040000 0.256279 0.717528 0.086457 -0.035766
4.050000 0.253535 0.723151 0.080590 -0.032329
4.060000 0.250707 0.729016 0.074540 -0.028752
4.070000 0.247795 0.735050 0.068380 -0.025102
4.080000 0.244806 0.737670 0.066963 -0.025088
4.090000 0.241759 0.740227 0.065519 -0.025076
4.100000 0.238678 0.742757 0.064059 -0.025077
4.110000 0.235593 0.745304 0.062597 -0.025095
4.120000 0.232534 0.747913 0.061147 -0.025134
4.130000 0.229514 0.750602 0.059715 -0.025188
4.140000 0.226525 0.751586 0.058008 -0.024813
4.150000 0.223551 0.751605 0.056191 -0.024240
4.160000 0.220594 0.751269 0.054384 -0.023665
4.170000 0.217654 0.750611 0.052587 -0.023108
4.180000 0.214729 0.749648 0.050799 -0.022543
4.190000 0.211813 0.748298 0.049188 -0.022100
4.200000 0.208898 0.746493 0.047852 -0.021867
4.210000 0.205982 0.744374 0.046515 -0.021623
4.220000 0.203081 0.742009 0.045185 -0.021400
4.230000 0.200202 0.739448 0.043866 -0.021220
4.240000 0.197346 0.736703 0.042557 -0.021038
4.250000 0.194510 0.733790 0.041257 -0.020853
4.260000 0.191695 0.730334 0.039337 -0.020297
4.270000 0.188897 0.726439 0.037188 -0.019608
4.280000 0.186119 0.722229 0.035055 -0.018929
4.290000 0.183372 0.717779 0.032946 -0.018295
4.300000 0.180673 0.713172 0.030874 -0.017721
4.310000 0.178033 0.708473 0.028847 -0.017215
4.320000 0.175452 0.703900 0.027334 -0.017071
